HandClose
562.0723362658847
850.4398826979473
972.6295210166178
869.9902248289345
610.9481915933529
268.81720430107526
112.41446725317694
43.988269794721404
19.550342130987293
9.775171065493646
0
4.887585532746823
43.988269794721404
361.6813294232649
698.9247311827957
928.6412512218964
977.5171065493646
796.6764418377321
503.4213098729228
205.27859237536657
87.97653958944281
34.21309872922776
4.887585532746823
58.651026392961874
957.9667644183774
122.18963831867057
9.775171065493646
48.87585532746823
972.6295210166178
127.0772238514174
9.775171065493646
48.87585532746823
933.5288367546432
136.85239491691104
9.775171065493646
43.988269794721404
845.5522971652003
278.5923753665689
14.662756598240469
4.887585532746823
552.297165200391
581.622678396872
14.662756598240469
9.775171065493646
586.5102639296188
571.8475073313783
14.662756598240469
4.887585532746823
562.0723362658847
591.3978494623656
14.662756598240469
9.775171065493646
562.0723362658847
620.7233626588466
14.662756598240469
4.887585532746823
552.297165200391
606.060606060606
14.662756598240469
4.887585532746823
527.8592375366569
615.8357771260997
14.662756598240469
4.887585532746823
537.6344086021505
610.9481915933529
19.550342130987293
9.775171065493646
527.8592375366569
659.8240469208212
19.550342130987293
9.775171065493646
522.9716520039101
645.1612903225806
19.550342130987293
0
508.3088954056696
635.386119257087
9.775171065493646
4.887585532746823
488.7585532746823
650.0488758553274
14.662756598240469
4.887585532746823
488.7585532746823
659.8240469208212
19.550342130987293
9.775171065493646
478.9833822091887
855.3274682306941
34.21309872922776
9.775171065493646
175.95307917888562
967.741935483871
87.97653958944281
4.887585532746823
171.0654936461388
953.0791788856305
92.86412512218963
9.775171065493646
161.29032258064515
977.5171065493646
92.86412512218963
4.887585532746823
141.73998044965788
972.6295210166178
92.86412512218963
14.662756598240469
151.5151515151515
957.9667644183774
87.97653958944281
4.887585532746823
131.96480938416423
957.9667644183774
87.97653958944281
4.887585532746823
131.96480938416423
967.741935483871
102.63929618768329
4.887585532746823
131.96480938416423
967.741935483871
102.63929618768329
4.887585532746823
117.30205278592375
967.741935483871
97.75171065493646
9.775171065493646
117.30205278592375
962.8543499511242
102.63929618768329
4.887585532746823
112.41446725317694
953.0791788856305
102.63929618768329
9.775171065493646
87.97653958944281
957.9667644183774
107.52688172043011
4.887585532746823
87.97653958944281
957.9667644183774
107.52688172043011
14.662756598240469
83.088954056696
953.0791788856305
112.41446725317694
4.887585532746823
78.20136852394917
957.9667644183774
117.30205278592375
4.887585532746823
78.20136852394917
967.741935483871
122.18963831867057
4.887585532746823
68.42619745845552
953.0791788856305
117.30205278592375
9.775171065493646
63.5386119257087
967.741935483871
117.30205278592375
4.887585532746823
58.651026392961874
967.741935483871
131.96480938416423
14.662756598240469
43.988269794721404
835.7771260997067
268.81720430107526
14.662756598240469
4.887585532746823
591.3978494623656
547.4095796676442
19.550342130987293
4.887585532746823
596.2854349951124
557.1847507331378
14.662756598240469
4.887585532746823
571.8475073313783
566.9599217986315
24.437927663734115
0
566.9599217986315
591.3978494623656
14.662756598240469
4.887585532746823
557.1847507331378
586.5102639296188
14.662756598240469
9.775171065493646
562.0723362658847
606.060606060606
19.550342130987293
4.887585532746823
552.297165200391
586.5102639296188
9.775171065493646
4.887585532746823
537.6344086021505
606.060606060606
14.662756598240469
4.887585532746823
542.5219941348973
625.6109481915934
19.550342130987293
4.887585532746823
513.1964809384165
615.8357771260997
19.550342130987293
9.775171065493646
513.1964809384165
654.9364613880742
14.662756598240469
4.887585532746823
513.1964809384165
635.386119257087
19.550342130987293
9.775171065493646
498.533724340176
664.711632453568
19.550342130987293
4.887585532746823
483.8709677419355
879.7653958944281
48.87585532746823
4.887585532746823
488.7585532746823
664.711632453568
19.550342130987293
9.775171065493646
459.4330400782014
869.9902248289345
43.988269794721404
4.887585532746823
161.29032258064515
982.4046920821114
83.088954056696
0
161.29032258064515
967.741935483871
83.088954056696
9.775171065493646
161.29032258064515
967.741935483871
92.86412512218963
14.662756598240469
156.40273704789834
962.8543499511242
92.86412512218963
4.887585532746823
131.96480938416423
962.8543499511242
107.52688172043011
14.662756598240469
131.96480938416423
962.8543499511242
102.63929618768329
9.775171065493646
107.52688172043011
977.5171065493646
102.63929618768329
9.775171065493646
117.30205278592375
957.9667644183774
107.52688172043011
4.887585532746823
92.86412512218963
962.8543499511242
107.52688172043011
4.887585532746823
83.088954056696
972.6295210166178
102.63929618768329
9.775171065493646
92.86412512218963
967.741935483871
107.52688172043011
9.775171065493646
92.86412512218963
953.0791788856305
107.52688172043011
9.775171065493646
83.088954056696
972.6295210166178
122.18963831867057
9.775171065493646
83.088954056696
967.741935483871
117.30205278592375
14.662756598240469
63.5386119257087
953.0791788856305
117.30205278592375
4.887585532746823
68.42619745845552
967.741935483871
117.30205278592375
4.887585532746823
53.763440860215056
977.5171065493646
122.18963831867057
9.775171065493646
53.763440860215056
957.9667644183774
131.96480938416423
4.887585532746823
48.87585532746823
953.0791788856305
136.85239491691104
9.775171065493646
48.87585532746823
953.0791788856305
127.0772238514174
14.662756598240469
43.988269794721404
826.0019550342131
283.47996089931576
9.775171065493646
4.887585532746823
620.7233626588466
571.8475073313783
14.662756598240469
9.775171065493646
576.7350928641251
591.3978494623656
19.550342130987293
0
571.8475073313783
610.9481915933529
14.662756598240469
4.887585532746823
547.4095796676442
606.060606060606
19.550342130987293
4.887585532746823
547.4095796676442
610.9481915933529
19.550342130987293
9.775171065493646
532.7468230694037
620.7233626588466
14.662756598240469
4.887585532746823
518.0840664711633
625.6109481915934
19.550342130987293
0
537.6344086021505
640.2737047898338
19.550342130987293
14.662756598240469
513.1964809384165
654.9364613880742
19.550342130987293
0
518.0840664711633
640.2737047898338
24.437927663734115
4.887585532746823
488.7585532746823
659.8240469208212
19.550342130987293
4.887585532746823
474.09579667644186
850.4398826979473
48.87585532746823
0
469.208211143695
874.8778103616813
39.100684261974585
9.775171065493646
175.95307917888562
1001.9550342130988
87.97653958944281
0
161.29032258064515
953.0791788856305
83.088954056696
9.775171065493646
166.177908113392
987.2922776148582
87.97653958944281
0
156.40273704789834
967.741935483871
87.97653958944281
0
146.6275659824047
962.8543499511242
92.86412512218963
0
151.5151515151515
992.179863147605
97.75171065493646
9.775171065493646
131.96480938416423
977.5171065493646
97.75171065493646
0
122.18963831867057
977.5171065493646
102.63929618768329
9.775171065493646
117.30205278592375
957.9667644183774
97.75171065493646
9.775171065493646
112.41446725317694
982.4046920821114
102.63929618768329
4.887585532746823
117.30205278592375
987.2922776148582
112.41446725317694
9.775171065493646
87.97653958944281
977.5171065493646
112.41446725317694
9.775171065493646
92.86412512218963
982.4046920821114
112.41446725317694
4.887585532746823
78.20136852394917
967.741935483871
117.30205278592375
9.775171065493646
78.20136852394917
962.8543499511242
122.18963831867057
4.887585532746823
73.31378299120234
962.8543499511242
117.30205278592375
4.887585532746823
58.651026392961874
977.5171065493646
122.18963831867057
4.887585532746823
63.5386119257087
972.6295210166178
122.18963831867057
14.662756598240469
58.651026392961874
962.8543499511242
131.96480938416423
9.775171065493646
48.87585532746823
962.8543499511242
131.96480938416423
9.775171065493646
43.988269794721404
840.6647116324535
273.7047898338221
14.662756598240469
4.887585532746823
591.3978494623656
566.9599217986315
14.662756598240469
9.775171065493646
586.5102639296188
571.8475073313783
14.662756598240469
9.775171065493646
562.0723362658847
596.2854349951124
14.662756598240469
4.887585532746823
581.622678396872
606.060606060606
19.550342130987293
9.775171065493646
547.4095796676442
606.060606060606
19.550342130987293
0
576.7350928641251
606.060606060606
19.550342130987293
0
542.5219941348973
630.4985337243402
14.662756598240469
4.887585532746823
527.8592375366569
645.1612903225806
19.550342130987293
4.887585532746823
522.9716520039101
635.386119257087
14.662756598240469
14.662756598240469
527.8592375366569
640.2737047898338
19.550342130987293
0
488.7585532746823
669.5992179863148
14.662756598240469
0
488.7585532746823
669.5992179863148
24.437927663734115
9.775171065493646
478.9833822091887
865.1026392961877
39.100684261974585
4.887585532746823
185.72825024437927
972.6295210166178
87.97653958944281
4.887585532746823
175.95307917888562
972.6295210166178
87.97653958944281
4.887585532746823
166.177908113392
992.179863147605
83.088954056696
4.887585532746823
156.40273704789834
982.4046920821114
97.75171065493646
0
146.6275659824047
992.179863147605
92.86412512218963
4.887585532746823
141.73998044965788
977.5171065493646
97.75171065493646
9.775171065493646
131.96480938416423
962.8543499511242
97.75171065493646
9.775171065493646
136.85239491691104
1001.9550342130988
102.63929618768329
4.887585532746823
117.30205278592375
957.9667644183774
97.75171065493646
14.662756598240469
117.30205278592375
967.741935483871
107.52688172043011
4.887585532746823
92.86412512218963
977.5171065493646
107.52688172043011
4.887585532746823
102.63929618768329
957.9667644183774
107.52688172043011
4.887585532746823
87.97653958944281
977.5171065493646
117.30205278592375
0
87.97653958944281
967.741935483871
107.52688172043011
9.775171065493646
73.31378299120234
967.741935483871
112.41446725317694
4.887585532746823
83.088954056696
972.6295210166178
117.30205278592375
4.887585532746823
73.31378299120234
987.2922776148582
117.30205278592375
4.887585532746823
68.42619745845552
962.8543499511242
131.96480938416423
9.775171065493646
63.5386119257087
982.4046920821114
122.18963831867057
14.662756598240469
48.87585532746823
972.6295210166178
131.96480938416423
9.775171065493646
48.87585532746823
977.5171065493646
131.96480938416423
9.775171065493646
34.21309872922776
850.4398826979473
278.5923753665689
19.550342130987293
4.887585532746823
601.1730205278592
576.7350928641251
14.662756598240469
4.887585532746823
562.0723362658847
606.060606060606
14.662756598240469
4.887585532746823
581.622678396872
606.060606060606
24.437927663734115
9.775171065493646
552.297165200391
606.060606060606
19.550342130987293
4.887585532746823
566.9599217986315
610.9481915933529
19.550342130987293
4.887585532746823
527.8592375366569
606.060606060606
19.550342130987293
4.887585532746823
508.3088954056696
679.3743890518084
24.437927663734115
4.887585532746823
488.7585532746823
537.6344086021505
9.775171065493646
0
474.09579667644186
1241.446725317693
58.651026392961874
4.887585532746823
508.3088954056696
654.9364613880742
14.662756598240469
4.887585532746823
498.533724340176
645.1612903225806
14.662756598240469
4.887585532746823
434.99511241446726
830.8895405669599
48.87585532746823
4.887585532746823
518.0840664711633
650.0488758553274
14.662756598240469
0
395.89442815249265
869.9902248289345
43.988269794721404
9.775171065493646
278.5923753665689
1129.032258064516
92.86412512218963
9.775171065493646
87.97653958944281
723.3626588465298
107.52688172043011
4.887585532746823
273.7047898338221
1070.3812316715544
92.86412512218963
4.887585532746823
278.5923753665689
1080.156402737048
112.41446725317694
9.775171065493646
112.41446725317694
791.7888563049853
127.0772238514174
4.887585532746823
117.30205278592375
904.2033235581623
73.31378299120234
9.775171065493646
307.91788856304987
977.5171065493646
78.20136852394917
4.887585532746823
180.84066471163246
1192.5708699902248
112.41446725317694
4.887585532746823
107.52688172043011
884.652981427175
117.30205278592375
9.775171065493646
166.177908113392
938.41642228739
73.31378299120234
4.887585532746823
68.42619745845552
1016.6177908113392
117.30205278592375
4.887585532746823
19.550342130987293
610.9481915933529
356.7937438905181
14.662756598240469
14.662756598240469
782.0136852394917
542.5219941348973
14.662756598240469
9.775171065493646
625.6109481915934
503.4213098729228
19.550342130987293
58.651026392961874
948.1915933528837
234.6041055718475
14.662756598240469
4.887585532746823
596.2854349951124
762.4633431085044
29.325513196480937
4.887585532746823
171.0654936461388
835.7771260997067
83.088954056696
180.84066471163246
997.067448680352
376.3440860215054
34.21309872922776
0
865.1026392961877
205.27859237536657
14.662756598240469
0
918.8660801564027
478.9833822091887
219.94134897360703
532.7468230694037
430.10752688172045
703.8123167155425
19.550342130987293
24.437927663734115
1295.2101661779081
337.2434017595308
19.550342130987293
4.887585532746823
386.119257086999
317.6930596285435
24.437927663734115
4.887585532746823
0
107.52688172043011
1539.5894428152492
34.21309872922776
557.1847507331378
83.088954056696
3054.740957966764
92.86412512218963
782.0136852394917
874.8778103616813
102.63929618768329
0
317.6930596285435
1031.2805474095796
117.30205278592375
127.0772238514174
39.100684261974585
728.2502443792766
19.550342130987293
923.7536656891496
557.1847507331378
259.04203323558164
48.87585532746823
0
742.9130009775171
405.66959921798633
24.437927663734115
1119.2570869990225
532.7468230694037
175.95307917888562
43.988269794721404
97.75171065493646
356.7937438905181
972.6295210166178
24.437927663734115
4.887585532746823
366.5689149560117
2170.0879765395894
58.651026392961874
4.887585532746823
117.30205278592375
1177.9081133919844
400.7820136852395
293.2551319648094
215.05376344086022
1881.720430107527
107.52688172043011
87.97653958944281
1744.8680351906157
293.2551319648094
14.662756598240469
0
821.1143695014663
640.2737047898338
19.550342130987293
327.4682306940371
464.3206256109482
68.42619745845552
78.20136852394917
1334.3108504398826
586.5102639296188
73.31378299120234
48.87585532746823
376.3440860215054
1520.039100684262
73.31378299120234
9.775171065493646
337.2434017595308
615.8357771260997
58.651026392961874
9.775171065493646
488.7585532746823
215.05376344086022
889.5405669599218
19.550342130987293
337.2434017595308
718.475073313783
14.662756598240469
63.5386119257087
1221.8963831867059
566.9599217986315
9.775171065493646
224.82893450635387
1681.329423264907
434.99511241446726
19.550342130987293
4.887585532746823
610.9481915933529
576.7350928641251
29.325513196480937
9.775171065493646
0
1045.9433040078202
43.988269794721404
4.887585532746823
1246.3343108504398
992.179863147605
43.988269794721404
4.887585532746823
1026.392961876833
738.0254154447703
58.651026392961874
0
1896.3831867057675
1608.0156402737048
58.651026392961874
14.662756598240469
957.9667644183774
312.8054740957967
24.437927663734115
0
601.1730205278592
522.9716520039101
9.775171065493646
4.887585532746823
821.1143695014663
1070.3812316715544
39.100684261974585
0
136.85239491691104
1666.6666666666667
87.97653958944281
0
356.7937438905181
547.4095796676442
34.21309872922776
4.887585532746823
259.04203323558164
1207.2336265884653
39.100684261974585
0
4.887585532746823
508.3088954056696
532.7468230694037
19.550342130987293
14.662756598240469
0
3225.8064516129034
200.39100684261976
19.550342130987293
303.030303030303
141.73998044965788
1089.9315738025416
29.325513196480937
650.0488758553274
669.5992179863148
29.325513196480937
4.887585532746823
342.1309872922776
1246.3343108504398
102.63929618768329
4.887585532746823
141.73998044965788
786.9012707722385
83.088954056696
19.550342130987293
29.325513196480937
777.1260997067449
371.45650048875854
24.437927663734115
938.41642228739
728.2502443792766
464.3206256109482
29.325513196480937
195.50342130987292
1021.505376344086
102.63929618768329
9.775171065493646
410.55718475073314
757.5757575757576
127.0772238514174
9.775171065493646
43.988269794721404
874.8778103616813
356.7937438905181
19.550342130987293
14.662756598240469
1608.0156402737048
219.94134897360703
4.887585532746823
58.651026392961874
957.9667644183774
151.5151515151515
24.437927663734115
4.887585532746823
469.208211143695
1045.9433040078202
83.088954056696
9.775171065493646
659.8240469208212
566.9599217986315
19.550342130987293
4.887585532746823
92.86412512218963
1075.268817204301
68.42619745845552
0
361.6813294232649
816.2267839687195
19.550342130987293
210.16617790811338
219.94134897360703
1383.186705767351
102.63929618768329
9.775171065493646
205.27859237536657
1182.7956989247311
107.52688172043011
9.775171065493646
620.7233626588466
772.238514173998
29.325513196480937
4.887585532746823
552.297165200391
259.04203323558164
19.550342130987293
4.887585532746823
4.887585532746823
1143.6950146627566
347.0185728250244
14.662756598240469
9.775171065493646
1779.0811339198435
874.8778103616813
24.437927663734115
63.5386119257087
1202.3460410557184
259.04203323558164
14.662756598240469
4.887585532746823
498.533724340176
630.4985337243402
14.662756598240469
0
669.5992179863148
347.0185728250244
24.437927663734115
0
1226.7839687194526
288.36754643206257
14.662756598240469
14.662756598240469
14.662756598240469
1075.268817204301
195.50342130987292
14.662756598240469
48.87585532746823
913.9784946236559
234.6041055718475
14.662756598240469
9.775171065493646
606.060606060606
478.9833822091887
29.325513196480937
4.887585532746823
361.6813294232649
527.8592375366569
239.49169110459434
9.775171065493646
376.3440860215054
381.2316715542522
102.63929618768329
4.887585532746823
219.94134897360703
777.1260997067449
117.30205278592375
4.887585532746823
474.09579667644186
1021.505376344086
117.30205278592375
4.887585532746823
0
772.238514173998
518.0840664711633
14.662756598240469
136.85239491691104
860.2150537634409
78.20136852394917
4.887585532746823
29.325513196480937
1148.5826001955033
210.16617790811338
14.662756598240469
9.775171065493646
571.8475073313783
219.94134897360703
14.662756598240469
0
337.2434017595308
801.564027370479
87.97653958944281
4.887585532746823
298.1427174975562
1036.1681329423266
68.42619745845552
9.775171065493646
175.95307917888562
957.9667644183774
127.0772238514174
4.887585532746823
606.060606060606
953.0791788856305
34.21309872922776
4.887585532746823
303.030303030303
796.6764418377321
259.04203323558164
14.662756598240469
141.73998044965788
1241.446725317693
63.5386119257087
4.887585532746823
273.7047898338221
909.0909090909091
53.763440860215056
0
210.16617790811338
723.3626588465298
122.18963831867057
9.775171065493646
73.31378299120234
928.6412512218964
156.40273704789834
4.887585532746823
136.85239491691104
948.1915933528837
117.30205278592375
9.775171065493646
249.266862170088
928.6412512218964
87.97653958944281
4.887585532746823
0
703.8123167155425
239.49169110459434
9.775171065493646
9.775171065493646
488.7585532746823
175.95307917888562
14.662756598240469
92.86412512218963
791.7888563049853
210.16617790811338
14.662756598240469
9.775171065493646
87.97653958944281
1192.5708699902248
141.73998044965788
4.887585532746823
527.8592375366569
288.36754643206257
19.550342130987293
4.887585532746823
83.088954056696
723.3626588465298
63.5386119257087
4.887585532746823
117.30205278592375
874.8778103616813
43.988269794721404
9.775171065493646
400.7820136852395
669.5992179863148
112.41446725317694
9.775171065493646
9.775171065493646
620.7233626588466
376.3440860215054
24.437927663734115
97.75171065493646
434.99511241446726
899.3157380254155
34.21309872922776
14.662756598240469
317.6930596285435
918.8660801564027
48.87585532746823
9.775171065493646
459.4330400782014
694.0371456500488
19.550342130987293
0
229.7165200391007
708.6999022482894
83.088954056696
4.887585532746823
19.550342130987293
1246.3343108504398
117.30205278592375
9.775171065493646
547.4095796676442
757.5757575757576
29.325513196480937
4.887585532746823
4.887585532746823
884.652981427175
298.1427174975562
19.550342130987293
4.887585532746823
557.1847507331378
571.8475073313783
19.550342130987293
9.775171065493646
303.030303030303
234.6041055718475
83.088954056696
9.775171065493646
0
957.9667644183774
161.29032258064515
19.550342130987293
9.775171065493646
713.5874877810362
356.7937438905181
14.662756598240469
9.775171065493646
650.0488758553274
430.10752688172045
29.325513196480937
4.887585532746823
78.20136852394917
948.1915933528837
78.20136852394917
9.775171065493646
83.088954056696
816.2267839687195
102.63929618768329
9.775171065493646
39.100684261974585
718.475073313783
459.4330400782014
29.325513196480937
9.775171065493646
1275.659824046921
263.92961876832845
19.550342130987293
24.437927663734115
141.73998044965788
738.0254154447703
58.651026392961874
4.887585532746823
249.266862170088
1075.268817204301
83.088954056696
9.775171065493646
356.7937438905181
948.1915933528837
39.100684261974585
9.775171065493646
102.63929618768329
1500.4887585532747
92.86412512218963
14.662756598240469
9.775171065493646
1241.446725317693
151.5151515151515
9.775171065493646
14.662756598240469
508.3088954056696
747.8005865102639
43.988269794721404
14.662756598240469
513.1964809384165
566.9599217986315
14.662756598240469
4.887585532746823
527.8592375366569
503.4213098729228
14.662756598240469
14.662756598240469
381.2316715542522
708.6999022482894
29.325513196480937
48.87585532746823
518.0840664711633
439.88269794721407
34.21309872922776
0
273.7047898338221
1583.5777126099706
68.42619745845552
9.775171065493646
195.50342130987292
830.8895405669599
73.31378299120234
0
317.6930596285435
752.6881720430108
43.988269794721404
9.775171065493646
14.662756598240469
723.3626588465298
171.0654936461388
9.775171065493646
78.20136852394917
957.9667644183774
322.5806451612903
19.550342130987293
9.775171065493646
1036.1681329423266
478.9833822091887
29.325513196480937
9.775171065493646
268.81720430107526
992.179863147605
78.20136852394917
4.887585532746823
298.1427174975562
899.3157380254155
63.5386119257087
4.887585532746823
171.0654936461388
894.4281524926686
43.988269794721404
14.662756598240469
102.63929618768329
801.564027370479
136.85239491691104
9.775171065493646
9.775171065493646
654.9364613880742
405.66959921798633
19.550342130987293
0
464.3206256109482
830.8895405669599
34.21309872922776
4.887585532746823
361.6813294232649
894.4281524926686
97.75171065493646
0
68.42619745845552
777.1260997067449
78.20136852394917
4.887585532746823
219.94134897360703
816.2267839687195
63.5386119257087
0
254.1544477028348
928.6412512218964
171.0654936461388
9.775171065493646
366.5689149560117
718.475073313783
92.86412512218963
4.887585532746823
136.85239491691104
874.8778103616813
83.088954056696
4.887585532746823
180.84066471163246
899.3157380254155
102.63929618768329
9.775171065493646
107.52688172043011
840.6647116324535
63.5386119257087
4.887585532746823
151.5151515151515
904.2033235581623
78.20136852394917
0
254.1544477028348
938.41642228739
92.86412512218963
9.775171065493646
107.52688172043011
904.2033235581623
102.63929618768329
9.775171065493646
117.30205278592375
928.6412512218964
87.97653958944281
4.887585532746823
48.87585532746823
923.7536656891496
102.63929618768329
4.887585532746823
83.088954056696
933.5288367546432
122.18963831867057
0
92.86412512218963
821.1143695014663
87.97653958944281
9.775171065493646
87.97653958944281
899.3157380254155
97.75171065493646
4.887585532746823
58.651026392961874
889.5405669599218
117.30205278592375
4.887585532746823
58.651026392961874
884.652981427175
107.52688172043011
4.887585532746823
48.87585532746823
899.3157380254155
122.18963831867057
9.775171065493646
48.87585532746823
879.7653958944281
102.63929618768329
4.887585532746823
53.763440860215056
918.8660801564027
131.96480938416423
9.775171065493646
43.988269794721404
782.0136852394917
215.05376344086022
14.662756598240469
9.775171065493646
596.2854349951124
405.66959921798633
19.550342130987293
9.775171065493646
283.47996089931576
865.1026392961877
68.42619745845552
4.887585532746823
229.7165200391007
855.3274682306941
58.651026392961874
9.775171065493646
254.1544477028348
855.3274682306941
53.763440860215056
4.887585532746823
234.6041055718475
860.2150537634409
43.988269794721404
4.887585532746823
24.437927663734115
757.5757575757576
249.266862170088
14.662756598240469
4.887585532746823
527.8592375366569
503.4213098729228
14.662756598240469
9.775171065493646
518.0840664711633
547.4095796676442
14.662756598240469
4.887585532746823
493.6461388074291
478.9833822091887
29.325513196480937
4.887585532746823
224.82893450635387
821.1143695014663
68.42619745845552
9.775171065493646
195.50342130987292
918.8660801564027
73.31378299120234
0
229.7165200391007
894.4281524926686
68.42619745845552
4.887585532746823
278.5923753665689
879.7653958944281
83.088954056696
4.887585532746823
215.05376344086022
1045.9433040078202
83.088954056696
9.775171065493646
63.5386119257087
869.9902248289345
73.31378299120234
0
185.72825024437927
869.9902248289345
73.31378299120234
4.887585532746823
224.82893450635387
879.7653958944281
68.42619745845552
0
171.0654936461388
850.4398826979473
78.20136852394917
14.662756598240469
146.6275659824047
977.5171065493646
58.651026392961874
4.887585532746823
136.85239491691104
918.8660801564027
87.97653958944281
9.775171065493646
146.6275659824047
865.1026392961877
87.97653958944281
4.887585532746823
141.73998044965788
884.652981427175
78.20136852394917
4.887585532746823
117.30205278592375
904.2033235581623
92.86412512218963
4.887585532746823
122.18963831867057
899.3157380254155
78.20136852394917
0
136.85239491691104
899.3157380254155
83.088954056696
4.887585532746823
68.42619745845552
894.4281524926686
78.20136852394917
9.775171065493646
102.63929618768329
904.2033235581623
87.97653958944281
4.887585532746823
151.5151515151515
972.6295210166178
73.31378299120234
4.887585532746823
102.63929618768329
889.5405669599218
87.97653958944281
4.887585532746823
87.97653958944281
874.8778103616813
102.63929618768329
4.887585532746823
83.088954056696
894.4281524926686
97.75171065493646
4.887585532746823
122.18963831867057
860.2150537634409
102.63929618768329
4.887585532746823
83.088954056696
904.2033235581623
92.86412512218963
4.887585532746823
73.31378299120234
923.7536656891496
107.52688172043011
4.887585532746823
53.763440860215056
909.0909090909091
107.52688172043011
0
78.20136852394917
879.7653958944281
107.52688172043011
4.887585532746823
63.5386119257087
855.3274682306941
107.52688172043011
9.775171065493646
73.31378299120234
865.1026392961877
107.52688172043011
4.887585532746823
53.763440860215056
889.5405669599218
107.52688172043011
9.775171065493646
63.5386119257087
884.652981427175
107.52688172043011
4.887585532746823
53.763440860215056
904.2033235581623
127.0772238514174
9.775171065493646
43.988269794721404
796.6764418377321
244.37927663734115
19.550342130987293
4.887585532746823
557.1847507331378
488.7585532746823
9.775171065493646
4.887585532746823
552.297165200391
474.09579667644186
34.21309872922776
4.887585532746823
298.1427174975562
860.2150537634409
58.651026392961874
9.775171065493646
259.04203323558164
865.1026392961877
68.42619745845552
4.887585532746823
263.92961876832845
894.4281524926686
63.5386119257087
9.775171065493646
259.04203323558164
855.3274682306941
63.5386119257087
0
244.37927663734115
889.5405669599218
68.42619745845552
0
219.94134897360703
869.9902248289345
58.651026392961874
0
239.49169110459434
889.5405669599218
68.42619745845552
4.887585532746823
229.7165200391007
879.7653958944281
63.5386119257087
4.887585532746823
180.84066471163246
894.4281524926686
73.31378299120234
4.887585532746823
200.39100684261976
894.4281524926686
73.31378299120234
9.775171065493646
200.39100684261976
855.3274682306941
68.42619745845552
9.775171065493646
200.39100684261976
889.5405669599218
78.20136852394917
9.775171065493646
195.50342130987292
874.8778103616813
73.31378299120234
4.887585532746823
166.177908113392
869.9902248289345
68.42619745845552
9.775171065493646
200.39100684261976
889.5405669599218
83.088954056696
9.775171065493646
166.177908113392
899.3157380254155
78.20136852394917
9.775171065493646
156.40273704789834
894.4281524926686
78.20136852394917
0
166.177908113392
879.7653958944281
78.20136852394917
4.887585532746823
161.29032258064515
879.7653958944281
78.20136852394917
4.887585532746823
166.177908113392
889.5405669599218
78.20136852394917
0
127.0772238514174
918.8660801564027
87.97653958944281
9.775171065493646
141.73998044965788
894.4281524926686
87.97653958944281
4.887585532746823
141.73998044965788
904.2033235581623
83.088954056696
4.887585532746823
87.97653958944281
884.652981427175
83.088954056696
0
117.30205278592375
894.4281524926686
73.31378299120234
9.775171065493646
102.63929618768329
899.3157380254155
87.97653958944281
4.887585532746823
112.41446725317694
884.652981427175
83.088954056696
4.887585532746823
92.86412512218963
904.2033235581623
92.86412512218963
4.887585532746823
92.86412512218963
904.2033235581623
87.97653958944281
4.887585532746823
87.97653958944281
894.4281524926686
97.75171065493646
9.775171065493646
83.088954056696
894.4281524926686
102.63929618768329
9.775171065493646
63.5386119257087
904.2033235581623
107.52688172043011
4.887585532746823
68.42619745845552
909.0909090909091
97.75171065493646
0
68.42619745845552
909.0909090909091
97.75171065493646
4.887585532746823
63.5386119257087
899.3157380254155
102.63929618768329
4.887585532746823
68.42619745845552
894.4281524926686
102.63929618768329
9.775171065493646
63.5386119257087
909.0909090909091
107.52688172043011
4.887585532746823
73.31378299120234
909.0909090909091
122.18963831867057
4.887585532746823
53.763440860215056
879.7653958944281
102.63929618768329
9.775171065493646
58.651026392961874
884.652981427175
102.63929618768329
4.887585532746823
53.763440860215056
918.8660801564027
112.41446725317694
9.775171065493646
34.21309872922776
791.7888563049853
244.37927663734115
9.775171065493646
4.887585532746823
591.3978494623656
566.9599217986315
14.662756598240469
14.662756598240469
542.5219941348973
518.0840664711633
4.887585532746823
9.775171065493646
542.5219941348973
513.1964809384165
14.662756598240469
4.887585532746823
522.9716520039101
537.6344086021505
9.775171065493646
4.887585532746823
552.297165200391
513.1964809384165
14.662756598240469
0
508.3088954056696
576.7350928641251
14.662756598240469
4.887585532746823
498.533724340176
532.7468230694037
14.662756598240469
9.775171065493646
503.4213098729228
576.7350928641251
14.662756598240469
4.887585532746823
503.4213098729228
552.297165200391
14.662756598240469
9.775171065493646
503.4213098729228
576.7350928641251
19.550342130987293
4.887585532746823
474.09579667644186
806.4516129032259
34.21309872922776
0
229.7165200391007
879.7653958944281
73.31378299120234
4.887585532746823
200.39100684261976
909.0909090909091
73.31378299120234
9.775171065493646
200.39100684261976
918.8660801564027
73.31378299120234
9.775171065493646
185.72825024437927
913.9784946236559
83.088954056696
9.775171065493646
171.0654936461388
913.9784946236559
73.31378299120234
4.887585532746823
171.0654936461388
904.2033235581623
68.42619745845552
0
175.95307917888562
909.0909090909091
78.20136852394917
4.887585532746823
161.29032258064515
923.7536656891496
92.86412512218963
4.887585532746823
151.5151515151515
879.7653958944281
78.20136852394917
4.887585532746823
171.0654936461388
928.6412512218964
73.31378299120234
4.887585532746823
146.6275659824047
928.6412512218964
92.86412512218963
9.775171065493646
141.73998044965788
904.2033235581623
78.20136852394917
4.887585532746823
131.96480938416423
913.9784946236559
83.088954056696
4.887585532746823
151.5151515151515
938.41642228739
87.97653958944281
0
131.96480938416423
918.8660801564027
87.97653958944281
0
107.52688172043011
928.6412512218964
92.86412512218963
14.662756598240469
127.0772238514174
899.3157380254155
92.86412512218963
4.887585532746823
87.97653958944281
909.0909090909091
102.63929618768329
9.775171065493646
87.97653958944281
909.0909090909091
107.52688172043011
0
107.52688172043011
913.9784946236559
97.75171065493646
0
92.86412512218963
918.8660801564027
97.75171065493646
4.887585532746823
97.75171065493646
913.9784946236559
107.52688172043011
9.775171065493646
92.86412512218963
933.5288367546432
107.52688172043011
4.887585532746823
73.31378299120234
933.5288367546432
107.52688172043011
0
68.42619745845552
913.9784946236559
112.41446725317694
4.887585532746823
68.42619745845552
904.2033235581623
107.52688172043011
0
68.42619745845552
933.5288367546432
107.52688172043011
0
68.42619745845552
938.41642228739
112.41446725317694
4.887585532746823
63.5386119257087
923.7536656891496
112.41446725317694
4.887585532746823
58.651026392961874
918.8660801564027
117.30205278592375
9.775171065493646
48.87585532746823
923.7536656891496
112.41446725317694
0
39.100684261974585
786.9012707722385
259.04203323558164
14.662756598240469
4.887585532746823
586.5102639296188
513.1964809384165
9.775171065493646
4.887585532746823
571.8475073313783
522.9716520039101
4.887585532746823
4.887585532746823
547.4095796676442
537.6344086021505
9.775171065493646
9.775171065493646
562.0723362658847
542.5219941348973
14.662756598240469
4.887585532746823
547.4095796676442
532.7468230694037
19.550342130987293
0
547.4095796676442
552.297165200391
9.775171065493646
14.662756598240469
547.4095796676442
552.297165200391
14.662756598240469
4.887585532746823
518.0840664711633
562.0723362658847
14.662756598240469
0
527.8592375366569
576.7350928641251
9.775171065493646
4.887585532746823
522.9716520039101
547.4095796676442
9.775171065493646
4.887585532746823
522.9716520039101
566.9599217986315
19.550342130987293
0
508.3088954056696
566.9599217986315
14.662756598240469
4.887585532746823
513.1964809384165
591.3978494623656
19.550342130987293
4.887585532746823
503.4213098729228
586.5102639296188
24.437927663734115
4.887585532746823
483.8709677419355
796.6764418377321
39.100684261974585
0
175.95307917888562
904.2033235581623
78.20136852394917
9.775171065493646
205.27859237536657
928.6412512218964
68.42619745845552
0
190.6158357771261
913.9784946236559
68.42619745845552
0
190.6158357771261
957.9667644183774
83.088954056696
0
175.95307917888562
933.5288367546432
73.31378299120234
4.887585532746823
156.40273704789834
918.8660801564027
87.97653958944281
4.887585532746823
166.177908113392
923.7536656891496
73.31378299120234
4.887585532746823
171.0654936461388
889.5405669599218
83.088954056696
4.887585532746823
141.73998044965788
923.7536656891496
83.088954056696
0
166.177908113392
938.41642228739
83.088954056696
4.887585532746823
136.85239491691104
874.8778103616813
73.31378299120234
0
195.50342130987292
767.3509286412512
107.52688172043011
4.887585532746823
83.088954056696
889.5405669599218
127.0772238514174
4.887585532746823
131.96480938416423
835.7771260997067
78.20136852394917
0
122.18963831867057
733.1378299120234
78.20136852394917
4.887585532746823
205.27859237536657
997.067448680352
107.52688172043011
4.887585532746823
171.0654936461388
933.5288367546432
87.97653958944281
4.887585532746823
410.55718475073314
894.4281524926686
97.75171065493646
0
127.0772238514174
938.41642228739
102.63929618768329
0
83.088954056696
923.7536656891496
102.63929618768329
4.887585532746823
171.0654936461388
1099.7067448680352
102.63929618768329
4.887585532746823
92.86412512218963
757.5757575757576
68.42619745845552
0
175.95307917888562
889.5405669599218
63.5386119257087
0
53.763440860215056
830.8895405669599
58.651026392961874
9.775171065493646
43.988269794721404
1036.1681329423266
200.39100684261976
4.887585532746823
9.775171065493646
586.5102639296188
547.4095796676442
14.662756598240469
0
391.00684261974584
698.9247311827957
24.437927663734115
4.887585532746823
425.21994134897363
547.4095796676442
83.088954056696
4.887585532746823
210.16617790811338
835.7771260997067
43.988269794721404
14.662756598240469
63.5386119257087
1070.3812316715544
112.41446725317694
14.662756598240469
9.775171065493646
830.8895405669599
268.81720430107526
9.775171065493646
0
669.5992179863148
327.4682306940371
24.437927663734115
0
317.6930596285435
659.8240469208212
19.550342130987293
0
1671.5542521994134
439.88269794721407
43.988269794721404
58.651026392961874
4.887585532746823
826.0019550342131
376.3440860215054
19.550342130987293
24.437927663734115
566.9599217986315
703.8123167155425
9.775171065493646
0
1192.5708699902248
522.9716520039101
4.887585532746823
9.775171065493646
68.42619745845552
1339.1984359726296
73.31378299120234
58.651026392961874
1436.950146627566
508.3088954056696
14.662756598240469
29.325513196480937
718.475073313783
210.16617790811338
312.8054740957967
39.100684261974585
439.88269794721407
244.37927663734115
4.887585532746823
117.30205278592375
586.5102639296188
234.6041055718475
9.775171065493646
4.887585532746823
180.84066471163246
1906.158357771261
234.6041055718475
14.662756598240469
9.775171065493646
1290.3225806451612
68.42619745845552
146.6275659824047
537.6344086021505
967.741935483871
29.325513196480937
0
630.4985337243402
562.0723362658847
117.30205278592375
9.775171065493646
635.386119257087
122.18963831867057
19.550342130987293
347.0185728250244
112.41446725317694
654.9364613880742
259.04203323558164
24.437927663734115
1148.5826001955033
351.90615835777123
34.21309872922776
684.2619745845552
234.6041055718475
522.9716520039101
34.21309872922776
4.887585532746823
166.177908113392
1085.0439882697947
48.87585532746823
4.887585532746823
219.94134897360703
542.5219941348973
34.21309872922776
9.775171065493646
1114.3695014662756
620.7233626588466
131.96480938416423
474.09579667644186
122.18963831867057
1309.8729227761485
122.18963831867057
14.662756598240469
278.5923753665689
518.0840664711633
14.662756598240469
0
532.7468230694037
1070.3812316715544
39.100684261974585
381.2316715542522
347.0185728250244
1515.1515151515152
63.5386119257087
268.81720430107526
664.711632453568
527.8592375366569
9.775171065493646
1876.83284457478
537.6344086021505
63.5386119257087
4.887585532746823
141.73998044965788
796.6764418377321
39.100684261974585
4.887585532746823
303.030303030303
430.10752688172045
107.52688172043011
4.887585532746823
581.622678396872
478.9833822091887
562.0723362658847
9.775171065493646
420.33235581622677
835.7771260997067
288.36754643206257
19.550342130987293
29.325513196480937
679.3743890518084
97.75171065493646
0
63.5386119257087
1021.505376344086
107.52688172043011
14.662756598240469
9.775171065493646
532.7468230694037
312.8054740957967
24.437927663734115
4.887585532746823
4.887585532746823
909.0909090909091
175.95307917888562
195.50342130987292
97.75171065493646
1236.5591397849462
102.63929618768329
14.662756598240469
376.3440860215054
620.7233626588466
239.49169110459434
14.662756598240469
610.9481915933529
674.4868035190616
29.325513196480937
4.887585532746823
381.2316715542522
1265.8846529814273
87.97653958944281
9.775171065493646
190.6158357771261
1070.3812316715544
48.87585532746823
498.533724340176
87.97653958944281
1055.7184750733138
68.42619745845552
997.067448680352
708.6999022482894
92.86412512218963
4.887585532746823
444.7702834799609
591.3978494623656
102.63929618768329
9.775171065493646
58.651026392961874
1001.9550342130988
34.21309872922776
4.887585532746823
4.887585532746823
444.7702834799609
1016.6177908113392
29.325513196480937
4.887585532746823
293.2551319648094
1001.9550342130988
92.86412512218963
9.775171065493646
146.6275659824047
1363.6363636363637
107.52688172043011
9.775171065493646
708.6999022482894
356.7937438905181
19.550342130987293
4.887585532746823
29.325513196480937
943.3040078201368
131.96480938416423
4.887585532746823
298.1427174975562
1148.5826001955033
122.18963831867057
4.887585532746823
63.5386119257087
909.0909090909091
694.0371456500488
19.550342130987293
288.36754643206257
757.5757575757576
78.20136852394917
9.775171065493646
29.325513196480937
786.9012707722385
244.37927663734115
9.775171065493646
14.662756598240469
933.5288367546432
190.6158357771261
14.662756598240469
34.21309872922776
391.00684261974584
210.16617790811338
630.4985337243402
43.988269794721404
933.5288367546432
307.91788856304987
14.662756598240469
9.775171065493646
645.1612903225806
1011.7302052785924
34.21309872922776
4.887585532746823
307.91788856304987
1109.4819159335289
73.31378299120234
0
219.94134897360703
1348.9736070381232
53.763440860215056
0
24.437927663734115
865.1026392961877
219.94134897360703
14.662756598240469
469.208211143695
1314.7605083088954
102.63929618768329
9.775171065493646
122.18963831867057
562.0723362658847
259.04203323558164
9.775171065493646
4.887585532746823
738.0254154447703
249.266862170088
4.887585532746823
9.775171065493646
449.65786901270775
518.0840664711633
14.662756598240469
0
400.7820136852395
1055.7184750733138
43.988269794721404
4.887585532746823
268.81720430107526
493.6461388074291
127.0772238514174
9.775171065493646
0
987.2922776148582
395.89442815249265
19.550342130987293
4.887585532746823
620.7233626588466
200.39100684261976
19.550342130987293
9.775171065493646
166.177908113392
884.652981427175
43.988269794721404
9.775171065493646
9.775171065493646
630.4985337243402
224.82893450635387
14.662756598240469
4.887585532746823
723.3626588465298
664.711632453568
19.550342130987293
4.887585532746823
366.5689149560117
1353.86119257087
73.31378299120234
4.887585532746823
112.41446725317694
977.5171065493646
83.088954056696
9.775171065493646
1001.9550342130988
645.1612903225806
19.550342130987293
0
332.355816226784
953.0791788856305
68.42619745845552
4.887585532746823
127.0772238514174
708.6999022482894
58.651026392961874
4.887585532746823
63.5386119257087
1133.919843597263
48.87585532746823
4.887585532746823
205.27859237536657
1001.9550342130988
43.988269794721404
9.775171065493646
180.84066471163246
899.3157380254155
117.30205278592375
4.887585532746823
83.088954056696
923.7536656891496
63.5386119257087
4.887585532746823
29.325513196480937
826.0019550342131
83.088954056696
4.887585532746823
0
576.7350928641251
224.82893450635387
9.775171065493646
14.662756598240469
224.82893450635387
1676.4418377321604
53.763440860215056
4.887585532746823
293.2551319648094
801.564027370479
34.21309872922776
4.887585532746823
0
562.0723362658847
278.5923753665689
9.775171065493646
4.887585532746823
625.6109481915934
439.88269794721407
19.550342130987293
4.887585532746823
630.4985337243402
860.2150537634409
39.100684261974585
4.887585532746823
259.04203323558164
1173.0205278592375
39.100684261974585
9.775171065493646
92.86412512218963
845.5522971652003
205.27859237536657
14.662756598240469
175.95307917888562
449.65786901270775
625.6109481915934
4.887585532746823
68.42619745845552
723.3626588465298
102.63929618768329
0
219.94134897360703
664.711632453568
234.6041055718475
19.550342130987293
53.763440860215056
630.4985337243402
97.75171065493646
4.887585532746823
117.30205278592375
469.208211143695
542.5219941348973
9.775171065493646
83.088954056696
811.3391984359727
249.266862170088
9.775171065493646
63.5386119257087
1031.2805474095796
92.86412512218963
4.887585532746823
43.988269794721404
943.3040078201368
107.52688172043011
4.887585532746823
0
816.2267839687195
239.49169110459434
19.550342130987293
0
386.119257086999
1036.1681329423266
43.988269794721404
4.887585532746823
386.119257086999
865.1026392961877
73.31378299120234
4.887585532746823
0
571.8475073313783
175.95307917888562
4.887585532746823
14.662756598240469
474.09579667644186
674.4868035190616
19.550342130987293
0
298.1427174975562
1085.0439882697947
53.763440860215056
29.325513196480937
273.7047898338221
894.4281524926686
97.75171065493646
14.662756598240469
68.42619745845552
918.8660801564027
151.5151515151515
9.775171065493646
307.91788856304987
918.8660801564027
83.088954056696
9.775171065493646
513.1964809384165
718.475073313783
24.437927663734115
9.775171065493646
273.7047898338221
1329.423264907136
63.5386119257087
4.887585532746823
400.7820136852395
1129.032258064516
43.988269794721404
4.887585532746823
4.887585532746823
913.9784946236559
464.3206256109482
19.550342130987293
4.887585532746823
542.5219941348973
728.2502443792766
29.325513196480937
4.887585532746823
552.297165200391
371.45650048875854
24.437927663734115
9.775171065493646
254.1544477028348
1006.8426197458456
102.63929618768329
9.775171065493646
239.49169110459434
840.6647116324535
63.5386119257087
0
151.5151515151515
1197.4584555229717
83.088954056696
0
503.4213098729228
586.5102639296188
58.651026392961874
4.887585532746823
728.2502443792766
493.6461388074291
14.662756598240469
0
757.5757575757576
449.65786901270775
29.325513196480937
9.775171065493646
244.37927663734115
904.2033235581623
83.088954056696
0
366.5689149560117
1124.1446725317694
83.088954056696
9.775171065493646
156.40273704789834
913.9784946236559
141.73998044965788
14.662756598240469
337.2434017595308
1011.7302052785924
73.31378299120234
9.775171065493646
205.27859237536657
698.9247311827957
63.5386119257087
0
219.94134897360703
791.7888563049853
141.73998044965788
0
43.988269794721404
718.475073313783
259.04203323558164
9.775171065493646
4.887585532746823
840.6647116324535
303.030303030303
19.550342130987293
0
547.4095796676442
434.99511241446726
24.437927663734115
58.651026392961874
288.36754643206257
1001.9550342130988
43.988269794721404
9.775171065493646
278.5923753665689
918.8660801564027
141.73998044965788
9.775171065493646
73.31378299120234
1021.505376344086
117.30205278592375
4.887585532746823
161.29032258064515
1275.659824046921
68.42619745845552
4.887585532746823
239.49169110459434
1050.830889540567
117.30205278592375
4.887585532746823
171.0654936461388
1133.919843597263
68.42619745845552
127.0772238514174
381.2316715542522
1114.3695014662756
34.21309872922776
4.887585532746823
131.96480938416423
992.179863147605
97.75171065493646
4.887585532746823
4.887585532746823
1251.2218963831867
307.91788856304987
14.662756598240469
0
557.1847507331378
674.4868035190616
14.662756598240469
9.775171065493646
786.9012707722385
381.2316715542522
24.437927663734115
9.775171065493646
777.1260997067449
337.2434017595308
24.437927663734115
0
131.96480938416423
1221.8963831867059
73.31378299120234
9.775171065493646
180.84066471163246
674.4868035190616
24.437927663734115
0
0
522.9716520039101
488.7585532746823
19.550342130987293
0
527.8592375366569
1119.2570869990225
43.988269794721404
9.775171065493646
850.4398826979473
234.6041055718475
0
0
410.55718475073314
1153.4701857282503
48.87585532746823
0
444.7702834799609
1011.7302052785924
34.21309872922776
9.775171065493646
53.763440860215056
430.10752688172045
537.6344086021505
14.662756598240469
185.72825024437927
972.6295210166178
68.42619745845552
4.887585532746823
200.39100684261976
953.0791788856305
63.5386119257087
0
107.52688172043011
1094.8191593352883
131.96480938416423
4.887585532746823
48.87585532746823
938.41642228739
73.31378299120234
4.887585532746823
63.5386119257087
1011.7302052785924
131.96480938416423
9.775171065493646
73.31378299120234
987.2922776148582
102.63929618768329
9.775171065493646
63.5386119257087
918.8660801564027
112.41446725317694
0
34.21309872922776
664.711632453568
195.50342130987292
9.775171065493646
0
659.8240469208212
478.9833822091887
24.437927663734115
4.887585532746823
391.00684261974584
830.8895405669599
39.100684261974585
0
83.088954056696
967.741935483871
122.18963831867057
4.887585532746823
53.763440860215056
928.6412512218964
141.73998044965788
14.662756598240469
83.088954056696
752.6881720430108
97.75171065493646
9.775171065493646
87.97653958944281
982.4046920821114
117.30205278592375
4.887585532746823
63.5386119257087
938.41642228739
117.30205278592375
4.887585532746823
63.5386119257087
957.9667644183774
107.52688172043011
4.887585532746823
87.97653958944281
894.4281524926686
141.73998044965788
14.662756598240469
136.85239491691104
865.1026392961877
146.6275659824047
4.887585532746823
34.21309872922776
928.6412512218964
249.266862170088
19.550342130987293
0
777.1260997067449
312.8054740957967
19.550342130987293
4.887585532746823
249.266862170088
909.0909090909091
63.5386119257087
4.887585532746823
322.5806451612903
913.9784946236559
58.651026392961874
29.325513196480937
112.41446725317694
869.9902248289345
39.100684261974585
9.775171065493646
68.42619745845552
874.8778103616813
166.177908113392
4.887585532746823
53.763440860215056
967.741935483871
141.73998044965788
4.887585532746823
53.763440860215056
826.0019550342131
92.86412512218963
4.887585532746823
34.21309872922776
738.0254154447703
415.44477028347995
24.437927663734115
4.887585532746823
601.1730205278592
513.1964809384165
9.775171065493646
9.775171065493646
625.6109481915934
654.9364613880742
9.775171065493646
9.775171065493646
694.0371456500488
694.0371456500488
19.550342130987293
9.775171065493646
610.9481915933529
562.0723362658847
14.662756598240469
4.887585532746823
586.5102639296188
571.8475073313783
14.662756598240469
9.775171065493646
478.9833822091887
826.0019550342131
34.21309872922776
4.887585532746823
278.5923753665689
962.8543499511242
73.31378299120234
4.887585532746823
327.4682306940371
977.5171065493646
53.763440860215056
0
361.6813294232649
1070.3812316715544
87.97653958944281
0
268.81720430107526
879.7653958944281
68.42619745845552
9.775171065493646
229.7165200391007
874.8778103616813
83.088954056696
0
210.16617790811338
923.7536656891496
73.31378299120234
9.775171065493646
200.39100684261976
894.4281524926686
78.20136852394917
4.887585532746823
263.92961876832845
938.41642228739
68.42619745845552
0
166.177908113392
982.4046920821114
73.31378299120234
4.887585532746823
205.27859237536657
850.4398826979473
83.088954056696
9.775171065493646
215.05376344086022
957.9667644183774
78.20136852394917
9.775171065493646
175.95307917888562
948.1915933528837
78.20136852394917
0
215.05376344086022
928.6412512218964
78.20136852394917
0
229.7165200391007
957.9667644183774
78.20136852394917
4.887585532746823
180.84066471163246
977.5171065493646
83.088954056696
4.887585532746823
239.49169110459434
962.8543499511242
78.20136852394917
9.775171065493646
215.05376344086022
957.9667644183774
87.97653958944281
0
210.16617790811338
1031.2805474095796
78.20136852394917
0
175.95307917888562
1094.8191593352883
78.20136852394917
4.887585532746823
171.0654936461388
933.5288367546432
78.20136852394917
4.887585532746823
185.72825024437927
982.4046920821114
78.20136852394917
0
171.0654936461388
977.5171065493646
87.97653958944281
4.887585532746823
185.72825024437927
982.4046920821114
83.088954056696
0
200.39100684261976
977.5171065493646
78.20136852394917
9.775171065493646
195.50342130987292
943.3040078201368
78.20136852394917
9.775171065493646
205.27859237536657
977.5171065493646
92.86412512218963
9.775171065493646
166.177908113392
972.6295210166178
87.97653958944281
4.887585532746823
161.29032258064515
962.8543499511242
87.97653958944281
0
146.6275659824047
957.9667644183774
92.86412512218963
4.887585532746823
122.18963831867057
948.1915933528837
107.52688172043011
0
122.18963831867057
997.067448680352
102.63929618768329
4.887585532746823
151.5151515151515
948.1915933528837
87.97653958944281
0
146.6275659824047
982.4046920821114
83.088954056696
4.887585532746823
156.40273704789834
957.9667644183774
92.86412512218963
4.887585532746823
127.0772238514174
948.1915933528837
97.75171065493646
4.887585532746823
131.96480938416423
948.1915933528837
102.63929618768329
9.775171065493646
141.73998044965788
938.41642228739
83.088954056696
4.887585532746823
151.5151515151515
977.5171065493646
97.75171065493646
14.662756598240469
122.18963831867057
992.179863147605
92.86412512218963
9.775171065493646
141.73998044965788
904.2033235581623
102.63929618768329
9.775171065493646
122.18963831867057
953.0791788856305
97.75171065493646
4.887585532746823
122.18963831867057
953.0791788856305
97.75171065493646
0
107.52688172043011
967.741935483871
102.63929618768329
9.775171065493646
102.63929618768329
938.41642228739
112.41446725317694
4.887585532746823
117.30205278592375
982.4046920821114
102.63929618768329
4.887585532746823
87.97653958944281
992.179863147605
112.41446725317694
9.775171065493646
97.75171065493646
957.9667644183774
107.52688172043011
4.887585532746823
87.97653958944281
967.741935483871
112.41446725317694
4.887585532746823
102.63929618768329
982.4046920821114
97.75171065493646
4.887585532746823
83.088954056696
962.8543499511242
107.52688172043011
4.887585532746823
92.86412512218963
967.741935483871
107.52688172043011
9.775171065493646
97.75171065493646
962.8543499511242
117.30205278592375
4.887585532746823
68.42619745845552
953.0791788856305
107.52688172043011
9.775171065493646
78.20136852394917
967.741935483871
117.30205278592375
9.775171065493646
78.20136852394917
953.0791788856305
117.30205278592375
9.775171065493646
78.20136852394917
943.3040078201368
112.41446725317694
9.775171065493646
78.20136852394917
972.6295210166178
107.52688172043011
4.887585532746823
68.42619745845552
972.6295210166178
117.30205278592375
9.775171065493646
78.20136852394917
972.6295210166178
112.41446725317694
4.887585532746823
68.42619745845552
962.8543499511242
117.30205278592375
4.887585532746823
63.5386119257087
953.0791788856305
112.41446725317694
9.775171065493646
58.651026392961874
943.3040078201368
117.30205278592375
4.887585532746823
63.5386119257087
953.0791788856305
122.18963831867057
4.887585532746823
63.5386119257087
953.0791788856305
122.18963831867057
14.662756598240469
58.651026392961874
957.9667644183774
127.0772238514174
9.775171065493646
48.87585532746823
948.1915933528837
127.0772238514174
4.887585532746823
48.87585532746823
943.3040078201368
127.0772238514174
9.775171065493646
48.87585532746823
967.741935483871
127.0772238514174
9.775171065493646
53.763440860215056
982.4046920821114
131.96480938416423
14.662756598240469
43.988269794721404
835.7771260997067
263.92961876832845
14.662756598240469
4.887585532746823
601.1730205278592
547.4095796676442
14.662756598240469
4.887585532746823
610.9481915933529
562.0723362658847
9.775171065493646
0
576.7350928641251
557.1847507331378
14.662756598240469
0
596.2854349951124
552.297165200391
14.662756598240469
4.887585532746823
586.5102639296188
557.1847507331378
14.662756598240469
9.775171065493646
596.2854349951124
552.297165200391
14.662756598240469
0
586.5102639296188
586.5102639296188
14.662756598240469
14.662756598240469
601.1730205278592
557.1847507331378
19.550342130987293
0
566.9599217986315
581.622678396872
14.662756598240469
4.887585532746823
537.6344086021505
630.4985337243402
19.550342130987293
9.775171065493646
557.1847507331378
601.1730205278592
14.662756598240469
0
566.9599217986315
586.5102639296188
14.662756598240469
0
562.0723362658847
581.622678396872
14.662756598240469
4.887585532746823
537.6344086021505
581.622678396872
14.662756598240469
4.887585532746823
537.6344086021505
581.622678396872
14.662756598240469
4.887585532746823
547.4095796676442
576.7350928641251
19.550342130987293
4.887585532746823
557.1847507331378
601.1730205278592
14.662756598240469
0
537.6344086021505
610.9481915933529
19.550342130987293
4.887585532746823
537.6344086021505
596.2854349951124
14.662756598240469
9.775171065493646
542.5219941348973
591.3978494623656
9.775171065493646
9.775171065493646
542.5219941348973
576.7350928641251
9.775171065493646
4.887585532746823
547.4095796676442
625.6109481915934
24.437927663734115
4.887585532746823
508.3088954056696
610.9481915933529
14.662756598240469
9.775171065493646
527.8592375366569
635.386119257087
14.662756598240469
4.887585532746823
513.1964809384165
620.7233626588466
19.550342130987293
4.887585532746823
508.3088954056696
635.386119257087
24.437927663734115
4.887585532746823
474.09579667644186
835.7771260997067
34.21309872922776
4.887585532746823
215.05376344086022
962.8543499511242
78.20136852394917
0
190.6158357771261
943.3040078201368
83.088954056696
4.887585532746823
205.27859237536657
972.6295210166178
73.31378299120234
4.887585532746823
210.16617790811338
962.8543499511242
78.20136852394917
0
210.16617790811338
957.9667644183774
83.088954056696
9.775171065493646
205.27859237536657
957.9667644183774
83.088954056696
9.775171065493646
224.82893450635387
967.741935483871
87.97653958944281
4.887585532746823
180.84066471163246
953.0791788856305
83.088954056696
4.887585532746823
219.94134897360703
953.0791788856305
83.088954056696
0
195.50342130987292
962.8543499511242
87.97653958944281
9.775171065493646
175.95307917888562
977.5171065493646
83.088954056696
4.887585532746823
180.84066471163246
953.0791788856305
87.97653958944281
0
166.177908113392
982.4046920821114
83.088954056696
9.775171065493646
171.0654936461388
972.6295210166178
83.088954056696
9.775171065493646
166.177908113392
972.6295210166178
92.86412512218963
4.887585532746823
151.5151515151515
957.9667644183774
83.088954056696
4.887585532746823
171.0654936461388
962.8543499511242
92.86412512218963
4.887585532746823
161.29032258064515
972.6295210166178
83.088954056696
0
151.5151515151515
1011.7302052785924
92.86412512218963
9.775171065493646
146.6275659824047
962.8543499511242
92.86412512218963
0
161.29032258064515
957.9667644183774
92.86412512218963
4.887585532746823
156.40273704789834
928.6412512218964
87.97653958944281
4.887585532746823
136.85239491691104
943.3040078201368
92.86412512218963
9.775171065493646
136.85239491691104
938.41642228739
92.86412512218963
0
141.73998044965788
967.741935483871
97.75171065493646
9.775171065493646
136.85239491691104
967.741935483871
83.088954056696
4.887585532746823
180.84066471163246
1001.9550342130988
97.75171065493646
9.775171065493646
127.0772238514174
972.6295210166178
92.86412512218963
9.775171065493646
146.6275659824047
982.4046920821114
102.63929618768329
4.887585532746823
122.18963831867057
953.0791788856305
102.63929618768329
4.887585532746823
127.0772238514174
953.0791788856305
102.63929618768329
4.887585532746823
122.18963831867057
967.741935483871
92.86412512218963
0
112.41446725317694
967.741935483871
97.75171065493646
9.775171065493646
117.30205278592375
962.8543499511242
102.63929618768329
4.887585532746823
107.52688172043011
987.2922776148582
107.52688172043011
4.887585532746823
117.30205278592375
972.6295210166178
102.63929618768329
9.775171065493646
92.86412512218963
957.9667644183774
107.52688172043011
9.775171065493646
107.52688172043011
967.741935483871
107.52688172043011
9.775171065493646
97.75171065493646
957.9667644183774
102.63929618768329
4.887585532746823
87.97653958944281
962.8543499511242
112.41446725317694
4.887585532746823
112.41446725317694
982.4046920821114
102.63929618768329
9.775171065493646
87.97653958944281
948.1915933528837
102.63929618768329
4.887585532746823
97.75171065493646
977.5171065493646
112.41446725317694
4.887585532746823
92.86412512218963
972.6295210166178
107.52688172043011
9.775171065493646
92.86412512218963
967.741935483871
107.52688172043011
4.887585532746823
92.86412512218963
977.5171065493646
102.63929618768329
9.775171065493646
83.088954056696
962.8543499511242
107.52688172043011
14.662756598240469
83.088954056696
953.0791788856305
112.41446725317694
0
83.088954056696
967.741935483871
117.30205278592375
4.887585532746823
68.42619745845552
943.3040078201368
97.75171065493646
4.887585532746823
97.75171065493646
953.0791788856305
112.41446725317694
0
78.20136852394917
987.2922776148582
112.41446725317694
4.887585532746823
68.42619745845552
997.067448680352
107.52688172043011
9.775171065493646
112.41446725317694
982.4046920821114
112.41446725317694
4.887585532746823
68.42619745845552
1114.3695014662756
92.86412512218963
0
58.651026392961874
923.7536656891496
112.41446725317694
4.887585532746823
53.763440860215056
953.0791788856305
112.41446725317694
9.775171065493646
73.31378299120234
943.3040078201368
117.30205278592375
4.887585532746823
63.5386119257087
953.0791788856305
146.6275659824047
9.775171065493646
34.21309872922776
855.3274682306941
307.91788856304987
19.550342130987293
0
674.4868035190616
464.3206256109482
29.325513196480937
4.887585532746823
259.04203323558164
1021.505376344086
73.31378299120234
9.775171065493646
210.16617790811338
938.41642228739
73.31378299120234
4.887585532746823
674.4868035190616
610.9481915933529
14.662756598240469
4.887585532746823
273.7047898338221
918.8660801564027
63.5386119257087
0
200.39100684261976
1031.2805474095796
68.42619745845552
4.887585532746823
400.7820136852395
894.4281524926686
48.87585532746823
0
332.355816226784
1158.357771260997
63.5386119257087
0
239.49169110459434
1041.0557184750733
83.088954056696
9.775171065493646
298.1427174975562
982.4046920821114
68.42619745845552
9.775171065493646
474.09579667644186
1055.7184750733138
53.763440860215056
48.87585532746823
498.533724340176
772.238514173998
24.437927663734115
0
303.030303030303
997.067448680352
92.86412512218963
0
488.7585532746823
752.6881720430108
9.775171065493646
1265.8846529814273
782.0136852394917
185.72825024437927
14.662756598240469
0
972.6295210166178
254.1544477028348
14.662756598240469
4.887585532746823
234.6041055718475
972.6295210166178
78.20136852394917
14.662756598240469
112.41446725317694
913.9784946236559
24.437927663734115
0
625.6109481915934
1045.9433040078202
29.325513196480937
78.20136852394917
322.5806451612903
884.652981427175
48.87585532746823
9.775171065493646
53.763440860215056
845.5522971652003
53.763440860215056
0
498.533724340176
1070.3812316715544
34.21309872922776
9.775171065493646
234.6041055718475
395.89442815249265
161.29032258064515
19.550342130987293
571.8475073313783
87.97653958944281
596.2854349951124
68.42619745845552
645.1612903225806
156.40273704789834
14.662756598240469
68.42619745845552
68.42619745845552
1568.9149560117303
48.87585532746823
151.5151515151515
430.10752688172045
1906.158357771261
39.100684261974585
9.775171065493646
449.65786901270775
610.9481915933529
782.0136852394917
195.50342130987292
1344.0860215053763
73.31378299120234
4.887585532746823
195.50342130987292
1422.2873900293255
146.6275659824047
0
742.9130009775171
283.47996089931576
566.9599217986315
19.550342130987293
229.7165200391007
405.66959921798633
767.3509286412512
166.177908113392
1417.3998044965788
136.85239491691104
117.30205278592375
180.84066471163246
884.652981427175
136.85239491691104
14.662756598240469
4.887585532746823
513.1964809384165
376.3440860215054
24.437927663734115
4.887585532746823
73.31378299120234
1080.156402737048
210.16617790811338
14.662756598240469
268.81720430107526
1476.0508308895405
107.52688172043011
48.87585532746823
913.9784946236559
307.91788856304987
347.0185728250244
43.988269794721404
689.149560117302
205.27859237536657
14.662756598240469
14.662756598240469
708.6999022482894
679.3743890518084
19.550342130987293
0
464.3206256109482
1285.4349951124145
171.0654936461388
4.887585532746823
151.5151515151515
420.33235581622677
757.5757575757576
24.437927663734115
953.0791788856305
752.6881720430108
39.100684261974585
4.887585532746823
78.20136852394917
938.41642228739
53.763440860215056
4.887585532746823
107.52688172043011
909.0909090909091
39.100684261974585
4.887585532746823
43.988269794721404
962.8543499511242
307.91788856304987
24.437927663734115
127.0772238514174
215.05376344086022
1397.8494623655913
29.325513196480937
9.775171065493646
293.2551319648094
1339.1984359726296
83.088954056696
210.16617790811338
620.7233626588466
215.05376344086022
9.775171065493646
92.86412512218963
1290.3225806451612
117.30205278592375
9.775171065493646
48.87585532746823
806.4516129032259
615.8357771260997
48.87585532746823
513.1964809384165
469.208211143695
24.437927663734115
596.2854349951124
532.7468230694037
391.00684261974584
24.437927663734115
14.662756598240469
478.9833822091887
899.3157380254155
39.100684261974585
0
518.0840664711633
576.7350928641251
14.662756598240469
4.887585532746823
327.4682306940371
278.5923753665689
635.386119257087
14.662756598240469
1295.2101661779081
659.8240469208212
19.550342130987293
0
1217.008797653959
860.2150537634409
39.100684261974585
0
48.87585532746823
953.0791788856305
78.20136852394917
4.887585532746823
161.29032258064515
1031.2805474095796
83.088954056696
4.887585532746823
254.1544477028348
1207.2336265884653
136.85239491691104
4.887585532746823
4.887585532746823
879.7653958944281
234.6041055718475
53.763440860215056
24.437927663734115
654.9364613880742
175.95307917888562
9.775171065493646
87.97653958944281
410.55718475073314
772.238514173998
19.550342130987293
0
659.8240469208212
591.3978494623656
14.662756598240469
175.95307917888562
1055.7184750733138
136.85239491691104
4.887585532746823
0
674.4868035190616
508.3088954056696
14.662756598240469
0
997.067448680352
625.6109481915934
9.775171065493646
87.97653958944281
1085.0439882697947
215.05376344086022
14.662756598240469
34.21309872922776
586.5102639296188
366.5689149560117
19.550342130987293
4.887585532746823
254.1544477028348
1026.392961876833
112.41446725317694
24.437927663734115
283.47996089931576
1383.186705767351
53.763440860215056
0
522.9716520039101
689.149560117302
112.41446725317694
14.662756598240469
542.5219941348973
381.2316715542522
24.437927663734115
0
654.9364613880742
498.533724340176
68.42619745845552
4.887585532746823
307.91788856304987
1270.772238514174
43.988269794721404
4.887585532746823
464.3206256109482
259.04203323558164
293.2551319648094
9.775171065493646
171.0654936461388
1769.30596285435
102.63929618768329
14.662756598240469
175.95307917888562
811.3391984359727
43.988269794721404
4.887585532746823
136.85239491691104
855.3274682306941
161.29032258064515
14.662756598240469
4.887585532746823
801.564027370479
356.7937438905181
19.550342130987293
4.887585532746823
122.18963831867057
1192.5708699902248
161.29032258064515
9.775171065493646
366.5689149560117
703.8123167155425
78.20136852394917
4.887585532746823
1275.659824046921
698.9247311827957
24.437927663734115
4.887585532746823
303.030303030303
1036.1681329423266
58.651026392961874
0
410.55718475073314
948.1915933528837
63.5386119257087
0
478.9833822091887
1060.6060606060605
63.5386119257087
4.887585532746823
151.5151515151515
1202.3460410557184
48.87585532746823
0
303.030303030303
1177.9081133919844
34.21309872922776
0
689.149560117302
728.2502443792766
63.5386119257087
4.887585532746823
400.7820136852395
830.8895405669599
48.87585532746823
4.887585532746823
278.5923753665689
698.9247311827957
63.5386119257087
53.763440860215056
410.55718475073314
1041.0557184750733
68.42619745845552
0
777.1260997067449
571.8475073313783
24.437927663734115
14.662756598240469
640.2737047898338
478.9833822091887
24.437927663734115
4.887585532746823
332.355816226784
806.4516129032259
92.86412512218963
4.887585532746823
254.1544477028348
1876.83284457478
107.52688172043011
9.775171065493646
322.5806451612903
967.741935483871
34.21309872922776
0
469.208211143695
1383.186705767351
97.75171065493646
9.775171065493646
19.550342130987293
1031.2805474095796
400.7820136852395
19.550342130987293
4.887585532746823
351.90615835777123
1652.0039100684262
53.763440860215056
9.775171065493646
493.6461388074291
356.7937438905181
14.662756598240469
0
234.6041055718475
879.7653958944281
39.100684261974585
0
141.73998044965788
933.5288367546432
68.42619745845552
9.775171065493646
14.662756598240469
757.5757575757576
337.2434017595308
19.550342130987293
9.775171065493646
332.355816226784
1055.7184750733138
53.763440860215056
9.775171065493646
694.0371456500488
576.7350928641251
9.775171065493646
9.775171065493646
493.6461388074291
796.6764418377321
19.550342130987293
205.27859237536657
728.2502443792766
146.6275659824047
14.662756598240469
0
557.1847507331378
288.36754643206257
24.437927663734115
4.887585532746823
136.85239491691104
913.9784946236559
131.96480938416423
9.775171065493646
307.91788856304987
948.1915933528837
58.651026392961874
4.887585532746823
9.775171065493646
630.4985337243402
195.50342130987292
9.775171065493646
19.550342130987293
943.3040078201368
195.50342130987292
4.887585532746823
9.775171065493646
298.1427174975562
1026.392961876833
39.100684261974585
4.887585532746823
601.1730205278592
664.711632453568
19.550342130987293
0
562.0723362658847
845.5522971652003
43.988269794721404
9.775171065493646
293.2551319648094
1221.8963831867059
68.42619745845552
9.775171065493646
351.90615835777123
1119.2570869990225
107.52688172043011
9.775171065493646
87.97653958944281
1114.3695014662756
92.86412512218963
219.94134897360703
698.9247311827957
483.8709677419355
24.437927663734115
0
400.7820136852395
869.9902248289345
34.21309872922776
4.887585532746823
43.988269794721404
772.238514173998
312.8054740957967
19.550342130987293
4.887585532746823
342.1309872922776
1500.4887585532747
43.988269794721404
9.775171065493646
464.3206256109482
884.652981427175
48.87585532746823
9.775171065493646
107.52688172043011
1290.3225806451612
53.763440860215056
9.775171065493646
444.7702834799609
904.2033235581623
97.75171065493646
4.887585532746823
449.65786901270775
1256.1094819159334
117.30205278592375
9.775171065493646
200.39100684261976
938.41642228739
73.31378299120234
9.775171065493646
361.6813294232649
767.3509286412512
68.42619745845552
4.887585532746823
356.7937438905181
806.4516129032259
63.5386119257087
4.887585532746823
444.7702834799609
786.9012707722385
34.21309872922776
4.887585532746823
0
806.4516129032259
263.92961876832845
9.775171065493646
4.887585532746823
591.3978494623656
586.5102639296188
14.662756598240469
4.887585532746823
1026.392961876833
674.4868035190616
19.550342130987293
0
1256.1094819159334
625.6109481915934
19.550342130987293
9.775171065493646
488.7585532746823
679.3743890518084
53.763440860215056
0
826.0019550342131
337.2434017595308
14.662756598240469
4.887585532746823
488.7585532746823
708.6999022482894
19.550342130987293
4.887585532746823
180.84066471163246
869.9902248289345
68.42619745845552
9.775171065493646
29.325513196480937
992.179863147605
259.04203323558164
14.662756598240469
87.97653958944281
948.1915933528837
92.86412512218963
4.887585532746823
351.90615835777123
1490.713587487781
97.75171065493646
9.775171065493646
205.27859237536657
1129.032258064516
63.5386119257087
0
190.6158357771261
962.8543499511242
117.30205278592375
9.775171065493646
83.088954056696
767.3509286412512
131.96480938416423
9.775171065493646
254.1544477028348
713.5874877810362
127.0772238514174
4.887585532746823
122.18963831867057
782.0136852394917
180.84066471163246
14.662756598240469
151.5151515151515
928.6412512218964
68.42619745845552
4.887585532746823
180.84066471163246
982.4046920821114
78.20136852394917
9.775171065493646
39.100684261974585
801.564027370479
444.7702834799609
19.550342130987293
9.775171065493646
1353.86119257087
254.1544477028348
24.437927663734115
9.775171065493646
464.3206256109482
659.8240469208212
112.41446725317694
24.437927663734115
381.2316715542522
518.0840664711633
34.21309872922776
4.887585532746823
180.84066471163246
1085.0439882697947
92.86412512218963
0
112.41446725317694
1016.6177908113392
102.63929618768329
9.775171065493646
146.6275659824047
1001.9550342130988
112.41446725317694
4.887585532746823
156.40273704789834
977.5171065493646
92.86412512218963
9.775171065493646
268.81720430107526
1016.6177908113392
97.75171065493646
4.887585532746823
78.20136852394917
997.067448680352
112.41446725317694
9.775171065493646
131.96480938416423
923.7536656891496
97.75171065493646
9.775171065493646
141.73998044965788
918.8660801564027
97.75171065493646
9.775171065493646
156.40273704789834
933.5288367546432
102.63929618768329
4.887585532746823
117.30205278592375
913.9784946236559
87.97653958944281
19.550342130987293
127.0772238514174
967.741935483871
97.75171065493646
9.775171065493646
107.52688172043011
967.741935483871
102.63929618768329
4.887585532746823
122.18963831867057
953.0791788856305
102.63929618768329
4.887585532746823
112.41446725317694
1001.9550342130988
97.75171065493646
4.887585532746823
112.41446725317694
982.4046920821114
102.63929618768329
0
107.52688172043011
1006.8426197458456
107.52688172043011
0
92.86412512218963
1021.505376344086
112.41446725317694
9.775171065493646
117.30205278592375
967.741935483871
97.75171065493646
0
122.18963831867057
948.1915933528837
87.97653958944281
4.887585532746823
122.18963831867057
1011.7302052785924
83.088954056696
4.887585532746823
102.63929618768329
894.4281524926686
102.63929618768329
4.887585532746823
117.30205278592375
992.179863147605
112.41446725317694
14.662756598240469
39.100684261974585
928.6412512218964
190.6158357771261
9.775171065493646
0
869.9902248289345
430.10752688172045
19.550342130987293
4.887585532746823
337.2434017595308
948.1915933528837
53.763440860215056
9.775171065493646
361.6813294232649
865.1026392961877
43.988269794721404
0
87.97653958944281
1036.1681329423266
131.96480938416423
4.887585532746823
73.31378299120234
987.2922776148582
136.85239491691104
4.887585532746823
73.31378299120234
948.1915933528837
102.63929618768329
9.775171065493646
112.41446725317694
997.067448680352
97.75171065493646
9.775171065493646
63.5386119257087
884.652981427175
102.63929618768329
4.887585532746823
97.75171065493646
1036.1681329423266
102.63929618768329
4.887585532746823
112.41446725317694
977.5171065493646
117.30205278592375
4.887585532746823
107.52688172043011
992.179863147605
117.30205278592375
9.775171065493646
87.97653958944281
1016.6177908113392
122.18963831867057
4.887585532746823
63.5386119257087
1168.1329423264908
117.30205278592375
0
53.763440860215056
972.6295210166178
127.0772238514174
9.775171065493646
87.97653958944281
972.6295210166178
117.30205278592375
9.775171065493646
53.763440860215056
1001.9550342130988
127.0772238514174
4.887585532746823
68.42619745845552
1055.7184750733138
112.41446725317694
4.887585532746823
43.988269794721404
786.9012707722385
293.2551319648094
14.662756598240469
0
650.0488758553274
552.297165200391
9.775171065493646
4.887585532746823
650.0488758553274
542.5219941348973
9.775171065493646
9.775171065493646
635.386119257087
552.297165200391
19.550342130987293
4.887585532746823
630.4985337243402
557.1847507331378
19.550342130987293
9.775171065493646
591.3978494623656
503.4213098729228
9.775171065493646
9.775171065493646
723.3626588465298
527.8592375366569
14.662756598240469
9.775171065493646
547.4095796676442
547.4095796676442
14.662756598240469
0
615.8357771260997
566.9599217986315
9.775171065493646
9.775171065493646
615.8357771260997
557.1847507331378
14.662756598240469
4.887585532746823
664.711632453568
557.1847507331378
19.550342130987293
0
640.2737047898338
581.622678396872
9.775171065493646
0
610.9481915933529
596.2854349951124
9.775171065493646
0
645.1612903225806
532.7468230694037
19.550342130987293
9.775171065493646
606.060606060606
586.5102639296188
19.550342130987293
0
601.1730205278592
596.2854349951124
14.662756598240469
4.887585532746823
610.9481915933529
596.2854349951124
19.550342130987293
4.887585532746823
591.3978494623656
630.4985337243402
14.662756598240469
0
606.060606060606
630.4985337243402
19.550342130987293
4.887585532746823
615.8357771260997
581.622678396872
19.550342130987293
4.887585532746823
581.622678396872
591.3978494623656
9.775171065493646
4.887585532746823
562.0723362658847
601.1730205278592
14.662756598240469
4.887585532746823
493.6461388074291
581.622678396872
9.775171065493646
9.775171065493646
635.386119257087
591.3978494623656
14.662756598240469
4.887585532746823
581.622678396872
615.8357771260997
9.775171065493646
4.887585532746823
552.297165200391
596.2854349951124
14.662756598240469
4.887585532746823
576.7350928641251
606.060606060606
19.550342130987293
9.775171065493646
557.1847507331378
625.6109481915934
19.550342130987293
0
488.7585532746823
625.6109481915934
14.662756598240469
4.887585532746823
586.5102639296188
566.9599217986315
19.550342130987293
4.887585532746823
552.297165200391
674.4868035190616
19.550342130987293
0
552.297165200391
625.6109481915934
9.775171065493646
4.887585532746823
547.4095796676442
650.0488758553274
19.550342130987293
4.887585532746823
552.297165200391
650.0488758553274
14.662756598240469
4.887585532746823
566.9599217986315
669.5992179863148
14.662756598240469
0
635.386119257087
537.6344086021505
9.775171065493646
4.887585532746823
542.5219941348973
645.1612903225806
9.775171065493646
0
552.297165200391
640.2737047898338
19.550342130987293
0
547.4095796676442
669.5992179863148
19.550342130987293
0
532.7468230694037
674.4868035190616
19.550342130987293
4.887585532746823
483.8709677419355
855.3274682306941
29.325513196480937
4.887585532746823
283.47996089931576
943.3040078201368
73.31378299120234
0
263.92961876832845
987.2922776148582
83.088954056696
4.887585532746823
215.05376344086022
997.067448680352
83.088954056696
4.887585532746823
215.05376344086022
1001.9550342130988
87.97653958944281
4.887585532746823
210.16617790811338
997.067448680352
78.20136852394917
9.775171065493646
215.05376344086022
957.9667644183774
83.088954056696
0
215.05376344086022
967.741935483871
83.088954056696
4.887585532746823
239.49169110459434
953.0791788856305
78.20136852394917
0
210.16617790811338
997.067448680352
83.088954056696
4.887585532746823
180.84066471163246
982.4046920821114
87.97653958944281
4.887585532746823
200.39100684261976
992.179863147605
83.088954056696
0
190.6158357771261
977.5171065493646
83.088954056696
14.662756598240469
180.84066471163246
992.179863147605
83.088954056696
4.887585532746823
219.94134897360703
992.179863147605
87.97653958944281
0
175.95307917888562
982.4046920821114
92.86412512218963
4.887585532746823
200.39100684261976
1006.8426197458456
87.97653958944281
4.887585532746823
180.84066471163246
987.2922776148582
92.86412512218963
9.775171065493646
171.0654936461388
992.179863147605
97.75171065493646
9.775171065493646
171.0654936461388
1021.505376344086
78.20136852394917
0
239.49169110459434
1011.7302052785924
78.20136852394917
0
151.5151515151515
987.2922776148582
92.86412512218963
4.887585532746823
175.95307917888562
992.179863147605
87.97653958944281
0
151.5151515151515
1001.9550342130988
102.63929618768329
4.887585532746823
161.29032258064515
1026.392961876833
87.97653958944281
4.887585532746823
146.6275659824047
997.067448680352
102.63929618768329
0
161.29032258064515
1036.1681329423266
102.63929618768329
4.887585532746823
107.52688172043011
1021.505376344086
117.30205278592375
0
141.73998044965788
982.4046920821114
102.63929618768329
0
136.85239491691104
987.2922776148582
97.75171065493646
4.887585532746823
146.6275659824047
992.179863147605
102.63929618768329
4.887585532746823
131.96480938416423
997.067448680352
107.52688172043011
0
122.18963831867057
1016.6177908113392
102.63929618768329
14.662756598240469
141.73998044965788
1031.2805474095796
97.75171065493646
9.775171065493646
131.96480938416423
982.4046920821114
102.63929618768329
4.887585532746823
131.96480938416423
982.4046920821114
97.75171065493646
4.887585532746823
127.0772238514174
1006.8426197458456
97.75171065493646
14.662756598240469
127.0772238514174
987.2922776148582
107.52688172043011
14.662756598240469
102.63929618768329
948.1915933528837
102.63929618768329
9.775171065493646
122.18963831867057
1021.505376344086
122.18963831867057
9.775171065493646
97.75171065493646
997.067448680352
107.52688172043011
4.887585532746823
117.30205278592375
987.2922776148582
107.52688172043011
4.887585532746823
102.63929618768329
992.179863147605
107.52688172043011
9.775171065493646
117.30205278592375
982.4046920821114
112.41446725317694
4.887585532746823
107.52688172043011
992.179863147605
107.52688172043011
0
122.18963831867057
928.6412512218964
102.63929618768329
4.887585532746823
92.86412512218963
997.067448680352
102.63929618768329
9.775171065493646
87.97653958944281
899.3157380254155
97.75171065493646
4.887585532746823
97.75171065493646
1016.6177908113392
112.41446725317694
4.887585532746823
83.088954056696
997.067448680352
117.30205278592375
4.887585532746823
87.97653958944281
1006.8426197458456
107.52688172043011
9.775171065493646
92.86412512218963
1006.8426197458456
112.41446725317694
14.662756598240469
97.75171065493646
997.067448680352
117.30205278592375
9.775171065493646
87.97653958944281
1006.8426197458456
102.63929618768329
4.887585532746823
78.20136852394917
992.179863147605
107.52688172043011
4.887585532746823
87.97653958944281
1001.9550342130988
112.41446725317694
9.775171065493646
87.97653958944281
987.2922776148582
112.41446725317694
9.775171065493646
83.088954056696
1016.6177908113392
122.18963831867057
9.775171065493646
68.42619745845552
953.0791788856305
117.30205278592375
4.887585532746823
68.42619745845552
1006.8426197458456
117.30205278592375
9.775171065493646
48.87585532746823
972.6295210166178
122.18963831867057
0
73.31378299120234
997.067448680352
117.30205278592375
4.887585532746823
73.31378299120234
967.741935483871
117.30205278592375
9.775171065493646
78.20136852394917
977.5171065493646
117.30205278592375
4.887585532746823
58.651026392961874
977.5171065493646
127.0772238514174
4.887585532746823
68.42619745845552
1006.8426197458456
122.18963831867057
9.775171065493646
63.5386119257087
997.067448680352
117.30205278592375
4.887585532746823
63.5386119257087
972.6295210166178
122.18963831867057
9.775171065493646
63.5386119257087
982.4046920821114
127.0772238514174
9.775171065493646
63.5386119257087
972.6295210166178
117.30205278592375
0
73.31378299120234
992.179863147605
127.0772238514174
0
58.651026392961874
982.4046920821114
131.96480938416423
4.887585532746823
39.100684261974585
860.2150537634409
288.36754643206257
9.775171065493646
9.775171065493646
620.7233626588466
591.3978494623656
19.550342130987293
4.887585532746823
601.1730205278592
562.0723362658847
9.775171065493646
4.887585532746823
610.9481915933529
566.9599217986315
19.550342130987293
0
610.9481915933529
562.0723362658847
14.662756598240469
4.887585532746823
601.1730205278592
562.0723362658847
14.662756598240469
4.887585532746823
586.5102639296188
576.7350928641251
14.662756598240469
4.887585532746823
601.1730205278592
576.7350928641251
14.662756598240469
4.887585532746823
606.060606060606
596.2854349951124
19.550342130987293
4.887585532746823
591.3978494623656
596.2854349951124
14.662756598240469
4.887585532746823
615.8357771260997
586.5102639296188
14.662756598240469
0
601.1730205278592
601.1730205278592
19.550342130987293
4.887585532746823
576.7350928641251
606.060606060606
9.775171065493646
4.887585532746823
566.9599217986315
630.4985337243402
14.662756598240469
4.887585532746823
586.5102639296188
625.6109481915934
19.550342130987293
0
557.1847507331378
601.1730205278592
19.550342130987293
4.887585532746823
591.3978494623656
606.060606060606
9.775171065493646
0
557.1847507331378
625.6109481915934
19.550342130987293
4.887585532746823
522.9716520039101
625.6109481915934
19.550342130987293
0
532.7468230694037
654.9364613880742
19.550342130987293
9.775171065493646
601.1730205278592
708.6999022482894
19.550342130987293
0
552.297165200391
596.2854349951124
19.550342130987293
4.887585532746823
542.5219941348973
625.6109481915934
19.550342130987293
4.887585532746823
498.533724340176
552.297165200391
14.662756598240469
9.775171065493646
581.622678396872
615.8357771260997
24.437927663734115
4.887585532746823
537.6344086021505
620.7233626588466
14.662756598240469
4.887585532746823
513.1964809384165
698.9247311827957
24.437927663734115
4.887585532746823
557.1847507331378
654.9364613880742
19.550342130987293
4.887585532746823
542.5219941348973
650.0488758553274
14.662756598240469
0
508.3088954056696
610.9481915933529
19.550342130987293
4.887585532746823
474.09579667644186
913.9784946236559
39.100684261974585
0
200.39100684261976
1006.8426197458456
83.088954056696
4.887585532746823
263.92961876832845
1031.2805474095796
83.088954056696
4.887585532746823
190.6158357771261
972.6295210166178
83.088954056696
4.887585532746823
273.7047898338221
913.9784946236559
73.31378299120234
0
195.50342130987292
987.2922776148582
78.20136852394917
0
395.89442815249265
1036.1681329423266
63.5386119257087
4.887585532746823
259.04203323558164
1021.505376344086
78.20136852394917
4.887585532746823
200.39100684261976
962.8543499511242
92.86412512218963
9.775171065493646
200.39100684261976
1031.2805474095796
97.75171065493646
4.887585532746823
141.73998044965788
928.6412512218964
83.088954056696
0
141.73998044965788
992.179863147605
73.31378299120234
4.887585532746823
386.119257086999
1055.7184750733138
107.52688172043011
4.887585532746823
156.40273704789834
967.741935483871
73.31378299120234
4.887585532746823
200.39100684261976
860.2150537634409
68.42619745845552
9.775171065493646
195.50342130987292
835.7771260997067
63.5386119257087
9.775171065493646
391.00684261974584
1221.8963831867059
83.088954056696
4.887585532746823
68.42619745845552
1070.3812316715544
127.0772238514174
14.662756598240469
127.0772238514174
899.3157380254155
68.42619745845552
4.887585532746823
87.97653958944281
1173.0205278592375
107.52688172043011
4.887585532746823
87.97653958944281
1070.3812316715544
166.177908113392
14.662756598240469
395.89442815249265
747.8005865102639
83.088954056696
0
464.3206256109482
1485.8260019550341
78.20136852394917
4.887585532746823
288.36754643206257
948.1915933528837
73.31378299120234
24.437927663734115
161.29032258064515
1153.4701857282503
48.87585532746823
0
840.6647116324535
865.1026392961877
102.63929618768329
4.887585532746823
571.8475073313783
640.2737047898338
874.8778103616813
122.18963831867057
865.1026392961877
102.63929618768329
4.887585532746823
454.54545454545456
957.9667644183774
190.6158357771261
0
356.7937438905181
757.5757575757576
254.1544477028348
9.775171065493646
1847.507331378299
415.44477028347995
166.177908113392
14.662756598240469
4.887585532746823
518.0840664711633
347.0185728250244
332.355816226784
650.0488758553274
527.8592375366569
87.97653958944281
4.887585532746823
351.90615835777123
811.3391984359727
180.84066471163246
14.662756598240469
786.9012707722385
1407.624633431085
87.97653958944281
0
2209.188660801564
288.36754643206257
14.662756598240469
87.97653958944281
1906.158357771261
366.5689149560117
19.550342130987293
19.550342130987293
63.5386119257087
420.33235581622677
107.52688172043011
97.75171065493646
0
1622.6783968719453
141.73998044965788
9.775171065493646
1163.245356793744
469.208211143695
122.18963831867057
0
1133.919843597263
1945.2590420332356
73.31378299120234
14.662756598240469
566.9599217986315
796.6764418377321
39.100684261974585
0
483.8709677419355
943.3040078201368
34.21309872922776
0
9.775171065493646
1295.2101661779081
904.2033235581623
19.550342130987293
53.763440860215056
2018.5728250244379
83.088954056696
347.0185728250244
747.8005865102639
913.9784946236559
34.21309872922776
14.662756598240469
591.3978494623656
840.6647116324535
34.21309872922776
4.887585532746823
19.550342130987293
1197.4584555229717
102.63929618768329
4.887585532746823
29.325513196480937
371.45650048875854
322.5806451612903
9.775171065493646
312.8054740957967
596.2854349951124
596.2854349951124
9.775171065493646
200.39100684261976
351.90615835777123
928.6412512218964
327.4682306940371
97.75171065493646
962.8543499511242
39.100684261974585
4.887585532746823
0
679.3743890518084
322.5806451612903
14.662756598240469
0
4.887585532746823
1622.6783968719453
307.91788856304987
14.662756598240469
4.887585532746823
1158.357771260997
518.0840664711633
14.662756598240469
806.4516129032259
596.2854349951124
131.96480938416423
19.550342130987293
48.87585532746823
1388.0742913000977
122.18963831867057
4.887585532746823
557.1847507331378
552.297165200391
19.550342130987293
0
97.75171065493646
601.1730205278592
224.82893450635387
19.550342130987293
259.04203323558164
1329.423264907136
63.5386119257087
4.887585532746823
219.94134897360703
1446.7253176930597
73.31378299120234
0
361.6813294232649
953.0791788856305
122.18963831867057
9.775171065493646
547.4095796676442
224.82893450635387
24.437927663734115
0
39.100684261974585
1089.9315738025416
351.90615835777123
24.437927663734115
83.088954056696
400.7820136852395
43.988269794721404
171.0654936461388
34.21309872922776
518.0840664711633
625.6109481915934
34.21309872922776
9.775171065493646
386.119257086999
1016.6177908113392
43.988269794721404
4.887585532746823
4.887585532746823
645.1612903225806
351.90615835777123
14.662756598240469
4.887585532746823
527.8592375366569
259.04203323558164
19.550342130987293
87.97653958944281
259.04203323558164
684.2619745845552
24.437927663734115
4.887585532746823
576.7350928641251
1041.0557184750733
48.87585532746823
0
1094.8191593352883
703.8123167155425
19.550342130987293
9.775171065493646
635.386119257087
596.2854349951124
19.550342130987293
9.775171065493646
439.88269794721407
650.0488758553274
19.550342130987293
4.887585532746823
923.7536656891496
1050.830889540567
43.988269794721404
4.887585532746823
43.988269794721404
1026.392961876833
102.63929618768329
9.775171065493646
312.8054740957967
1187.683284457478
151.5151515151515
0
210.16617790811338
928.6412512218964
156.40273704789834
9.775171065493646
356.7937438905181
840.6647116324535
78.20136852394917
4.887585532746823
63.5386119257087
620.7233626588466
361.6813294232649
14.662756598240469
9.775171065493646
1202.3460410557184
136.85239491691104
415.44477028347995
29.325513196480937
557.1847507331378
210.16617790811338
9.775171065493646
4.887585532746823
312.8054740957967
1578.690127077224
53.763440860215056
4.887585532746823
562.0723362658847
615.8357771260997
24.437927663734115
0
581.622678396872
449.65786901270775
29.325513196480937
0
83.088954056696
943.3040078201368
53.763440860215056
195.50342130987292
532.7468230694037
772.238514173998
24.437927663734115
4.887585532746823
488.7585532746823
669.5992179863148
19.550342130987293
9.775171065493646
552.297165200391
645.1612903225806
24.437927663734115
4.887585532746823
117.30205278592375
674.4868035190616
58.651026392961874
19.550342130987293
718.475073313783
483.8709677419355
34.21309872922776
0
141.73998044965788
884.652981427175
171.0654936461388
14.662756598240469
185.72825024437927
904.2033235581623
68.42619745845552
0
87.97653958944281
928.6412512218964
73.31378299120234
4.887585532746823
532.7468230694037
322.5806451612903
19.550342130987293
4.887585532746823
0
801.564027370479
205.27859237536657
9.775171065493646
4.887585532746823
1920.8211143695014
229.7165200391007
14.662756598240469
9.775171065493646
48.87585532746823
923.7536656891496
68.42619745845552
24.437927663734115
332.355816226784
703.8123167155425
53.763440860215056
4.887585532746823
219.94134897360703
1041.0557184750733
73.31378299120234
9.775171065493646
9.775171065493646
1031.2805474095796
146.6275659824047
9.775171065493646
4.887585532746823
562.0723362658847
664.711632453568
68.42619745845552
24.437927663734115
718.475073313783
97.75171065493646
9.775171065493646
39.100684261974585
967.741935483871
581.622678396872
9.775171065493646
0
542.5219941348973
557.1847507331378
14.662756598240469
0
630.4985337243402
386.119257086999
24.437927663734115
9.775171065493646
615.8357771260997
865.1026392961877
29.325513196480937
0
708.6999022482894
962.8543499511242
19.550342130987293
4.887585532746823
430.10752688172045
977.5171065493646
48.87585532746823
4.887585532746823
268.81720430107526
1148.5826001955033
83.088954056696
4.887585532746823
527.8592375366569
620.7233626588466
19.550342130987293
9.775171065493646
415.44477028347995
796.6764418377321
39.100684261974585
4.887585532746823
210.16617790811338
830.8895405669599
78.20136852394917
4.887585532746823
9.775171065493646
1158.357771260997
107.52688172043011
14.662756598240469
9.775171065493646
645.1612903225806
371.45650048875854
14.662756598240469
4.887585532746823
537.6344086021505
713.5874877810362
14.662756598240469
4.887585532746823
400.7820136852395
938.41642228739
39.100684261974585
9.775171065493646
268.81720430107526
826.0019550342131
112.41446725317694
9.775171065493646
224.82893450635387
850.4398826979473
73.31378299120234
259.04203323558164
303.030303030303
840.6647116324535
43.988269794721404
0
136.85239491691104
869.9902248289345
53.763440860215056
420.33235581622677
312.8054740957967
733.1378299120234
43.988269794721404
0
171.0654936461388
948.1915933528837
97.75171065493646
9.775171065493646
122.18963831867057
1109.4819159335289
102.63929618768329
4.887585532746823
205.27859237536657
757.5757575757576
117.30205278592375
9.775171065493646
97.75171065493646
606.060606060606
53.763440860215056
14.662756598240469
34.21309872922776
586.5102639296188
386.119257086999
14.662756598240469
127.0772238514174
1099.7067448680352
141.73998044965788
9.775171065493646
9.775171065493646
635.386119257087
405.66959921798633
14.662756598240469
9.775171065493646
488.7585532746823
386.119257086999
24.437927663734115
0
777.1260997067449
689.149560117302
19.550342130987293
4.887585532746823
97.75171065493646
879.7653958944281
151.5151515151515
9.775171065493646
141.73998044965788
1304.9853372434018
107.52688172043011
0
136.85239491691104
1055.7184750733138
73.31378299120234
4.887585532746823
175.95307917888562
865.1026392961877
131.96480938416423
0
166.177908113392
1432.062561094819
63.5386119257087
283.47996089931576
131.96480938416423
987.2922776148582
39.100684261974585
4.887585532746823
175.95307917888562
1021.505376344086
83.088954056696
9.775171065493646
351.90615835777123
767.3509286412512
102.63929618768329
4.887585532746823
175.95307917888562
1060.6060606060605
58.651026392961874
4.887585532746823
24.437927663734115
723.3626588465298
415.44477028347995
24.437927663734115
9.775171065493646
635.386119257087
156.40273704789834
9.775171065493646
9.775171065493646
430.10752688172045
874.8778103616813
43.988269794721404
4.887585532746823
478.9833822091887
957.9667644183774
112.41446725317694
4.887585532746823
190.6158357771261
1133.919843597263
112.41446725317694
0
151.5151515151515
1070.3812316715544
112.41446725317694
4.887585532746823
219.94134897360703
1217.008797653959
122.18963831867057
9.775171065493646
4.887585532746823
1568.9149560117303
190.6158357771261
14.662756598240469
9.775171065493646
772.238514173998
566.9599217986315
14.662756598240469
19.550342130987293
801.564027370479
464.3206256109482
24.437927663734115
4.887585532746823
439.88269794721407
918.8660801564027
53.763440860215056
4.887585532746823
4.887585532746823
997.067448680352
249.266862170088
19.550342130987293
425.21994134897363
1089.9315738025416
68.42619745845552
0
127.0772238514174
1173.0205278592375
78.20136852394917
4.887585532746823
166.177908113392
869.9902248289345
102.63929618768329
4.887585532746823
97.75171065493646
830.8895405669599
131.96480938416423
9.775171065493646
107.52688172043011
933.5288367546432
97.75171065493646
9.775171065493646
112.41446725317694
953.0791788856305
63.5386119257087
9.775171065493646
9.775171065493646
967.741935483871
303.030303030303
19.550342130987293
4.887585532746823
537.6344086021505
508.3088954056696
14.662756598240469
4.887585532746823
698.9247311827957
576.7350928641251
19.550342130987293
4.887585532746823
576.7350928641251
552.297165200391
9.775171065493646
4.887585532746823
669.5992179863148
522.9716520039101
9.775171065493646
9.775171065493646
689.149560117302
503.4213098729228
14.662756598240469
9.775171065493646
703.8123167155425
508.3088954056696
9.775171065493646
9.775171065493646
664.711632453568
