Wrist Flexion
395.89442815249265
723.3626588465298
938.41642228739
967.741935483871
821.1143695014663
518.0840664711633
210.16617790811338
87.97653958944281
43.988269794721404
19.550342130987293
4.887585532746823
4.887585532746823
0
180.84066471163246
532.7468230694037
874.8778103616813
987.2922776148582
933.5288367546432
694.0371456500488
347.0185728250244
136.85239491691104
53.763440860215056
14.662756598240469
410.55718475073314
913.9784946236559
53.763440860215056
9.775171065493646
400.7820136852395
933.5288367546432
58.651026392961874
0
395.89442815249265
957.9667644183774
53.763440860215056
4.887585532746823
420.33235581622677
928.6412512218964
53.763440860215056
4.887585532746823
391.00684261974584
933.5288367546432
43.988269794721404
4.887585532746823
136.85239491691104
1060.6060606060605
112.41446725317694
0
117.30205278592375
1006.8426197458456
112.41446725317694
0
92.86412512218963
1080.156402737048
107.52688172043011
9.775171065493646
107.52688172043011
977.5171065493646
122.18963831867057
9.775171065493646
78.20136852394917
982.4046920821114
107.52688172043011
4.887585532746823
73.31378299120234
977.5171065493646
122.18963831867057
0
73.31378299120234
1006.8426197458456
112.41446725317694
4.887585532746823
102.63929618768329
967.741935483871
107.52688172043011
9.775171065493646
63.5386119257087
948.1915933528837
131.96480938416423
9.775171065493646
48.87585532746823
1089.9315738025416
122.18963831867057
9.775171065493646
43.988269794721404
869.9902248289345
268.81720430107526
9.775171065493646
4.887585532746823
620.7233626588466
571.8475073313783
9.775171065493646
4.887585532746823
659.8240469208212
562.0723362658847
14.662756598240469
4.887585532746823
606.060606060606
557.1847507331378
14.662756598240469
0
757.5757575757576
547.4095796676442
14.662756598240469
9.775171065493646
610.9481915933529
557.1847507331378
19.550342130987293
4.887585532746823
547.4095796676442
742.9130009775171
19.550342130987293
4.887585532746823
542.5219941348973
625.6109481915934
19.550342130987293
4.887585532746823
566.9599217986315
527.8592375366569
9.775171065493646
4.887585532746823
645.1612903225806
586.5102639296188
14.662756598240469
0
596.2854349951124
571.8475073313783
14.662756598240469
9.775171065493646
586.5102639296188
601.1730205278592
14.662756598240469
4.887585532746823
596.2854349951124
596.2854349951124
19.550342130987293
0
596.2854349951124
581.622678396872
14.662756598240469
4.887585532746823
601.1730205278592
659.8240469208212
14.662756598240469
4.887585532746823
576.7350928641251
620.7233626588466
14.662756598240469
9.775171065493646
586.5102639296188
610.9481915933529
19.550342130987293
0
566.9599217986315
596.2854349951124
19.550342130987293
9.775171065493646
581.622678396872
659.8240469208212
19.550342130987293
9.775171065493646
542.5219941348973
620.7233626588466
9.775171065493646
0
537.6344086021505
625.6109481915934
24.437927663734115
4.887585532746823
537.6344086021505
640.2737047898338
14.662756598240469
9.775171065493646
522.9716520039101
620.7233626588466
19.550342130987293
9.775171065493646
478.9833822091887
972.6295210166178
39.100684261974585
9.775171065493646
224.82893450635387
987.2922776148582
73.31378299120234
9.775171065493646
200.39100684261976
948.1915933528837
87.97653958944281
0
249.266862170088
1070.3812316715544
83.088954056696
4.887585532746823
219.94134897360703
1006.8426197458456
73.31378299120234
9.775171065493646
205.27859237536657
1006.8426197458456
83.088954056696
9.775171065493646
239.49169110459434
1026.392961876833
87.97653958944281
9.775171065493646
200.39100684261976
982.4046920821114
78.20136852394917
0
215.05376344086022
987.2922776148582
78.20136852394917
4.887585532746823
200.39100684261976
977.5171065493646
83.088954056696
4.887585532746823
200.39100684261976
972.6295210166178
87.97653958944281
0
141.73998044965788
1065.4936461388074
112.41446725317694
4.887585532746823
190.6158357771261
1006.8426197458456
83.088954056696
4.887585532746823
166.177908113392
1001.9550342130988
83.088954056696
0
161.29032258064515
1045.9433040078202
107.52688172043011
4.887585532746823
141.73998044965788
982.4046920821114
87.97653958944281
0
161.29032258064515
977.5171065493646
87.97653958944281
9.775171065493646
175.95307917888562
997.067448680352
87.97653958944281
4.887585532746823
146.6275659824047
1006.8426197458456
92.86412512218963
4.887585532746823
122.18963831867057
962.8543499511242
97.75171065493646
4.887585532746823
131.96480938416423
997.067448680352
102.63929618768329
4.887585532746823
161.29032258064515
1011.7302052785924
83.088954056696
9.775171065493646
171.0654936461388
982.4046920821114
97.75171065493646
9.775171065493646
122.18963831867057
1006.8426197458456
102.63929618768329
4.887585532746823
122.18963831867057
957.9667644183774
92.86412512218963
9.775171065493646
136.85239491691104
997.067448680352
107.52688172043011
14.662756598240469
127.0772238514174
1036.1681329423266
97.75171065493646
9.775171065493646
131.96480938416423
992.179863147605
102.63929618768329
14.662756598240469
131.96480938416423
987.2922776148582
97.75171065493646
14.662756598240469
102.63929618768329
1006.8426197458456
107.52688172043011
4.887585532746823
127.0772238514174
987.2922776148582
122.18963831867057
14.662756598240469
102.63929618768329
1006.8426197458456
117.30205278592375
4.887585532746823
107.52688172043011
1016.6177908113392
112.41446725317694
4.887585532746823
112.41446725317694
1060.6060606060605
117.30205278592375
9.775171065493646
78.20136852394917
1001.9550342130988
102.63929618768329
9.775171065493646
122.18963831867057
1001.9550342130988
107.52688172043011
4.887585532746823
68.42619745845552
982.4046920821114
122.18963831867057
9.775171065493646
73.31378299120234
1021.505376344086
112.41446725317694
0
68.42619745845552
1016.6177908113392
127.0772238514174
0
73.31378299120234
1036.1681329423266
117.30205278592375
14.662756598240469
58.651026392961874
1031.2805474095796
141.73998044965788
9.775171065493646
58.651026392961874
997.067448680352
131.96480938416423
4.887585532746823
68.42619745845552
1016.6177908113392
136.85239491691104
9.775171065493646
58.651026392961874
992.179863147605
122.18963831867057
9.775171065493646
48.87585532746823
987.2922776148582
131.96480938416423
9.775171065493646
43.988269794721404
874.8778103616813
263.92961876832845
9.775171065493646
9.775171065493646
703.8123167155425
532.7468230694037
14.662756598240469
9.775171065493646
640.2737047898338
552.297165200391
14.662756598240469
0
645.1612903225806
537.6344086021505
14.662756598240469
4.887585532746823
620.7233626588466
586.5102639296188
9.775171065493646
9.775171065493646
610.9481915933529
562.0723362658847
14.662756598240469
9.775171065493646
630.4985337243402
620.7233626588466
9.775171065493646
9.775171065493646
591.3978494623656
630.4985337243402
19.550342130987293
9.775171065493646
586.5102639296188
591.3978494623656
14.662756598240469
9.775171065493646
596.2854349951124
625.6109481915934
14.662756598240469
9.775171065493646
620.7233626588466
591.3978494623656
14.662756598240469
9.775171065493646
620.7233626588466
650.0488758553274
9.775171065493646
9.775171065493646
625.6109481915934
586.5102639296188
9.775171065493646
4.887585532746823
566.9599217986315
689.149560117302
19.550342130987293
9.775171065493646
459.4330400782014
796.6764418377321
39.100684261974585
4.887585532746823
229.7165200391007
1006.8426197458456
73.31378299120234
0
259.04203323558164
982.4046920821114
78.20136852394917
4.887585532746823
259.04203323558164
1011.7302052785924
78.20136852394917
9.775171065493646
234.6041055718475
1001.9550342130988
83.088954056696
14.662756598240469
219.94134897360703
1021.505376344086
87.97653958944281
9.775171065493646
249.266862170088
982.4046920821114
73.31378299120234
4.887585532746823
298.1427174975562
972.6295210166178
78.20136852394917
4.887585532746823
224.82893450635387
1016.6177908113392
78.20136852394917
0
210.16617790811338
992.179863147605
87.97653958944281
0
234.6041055718475
1050.830889540567
87.97653958944281
4.887585532746823
215.05376344086022
992.179863147605
73.31378299120234
9.775171065493646
190.6158357771261
987.2922776148582
87.97653958944281
4.887585532746823
249.266862170088
987.2922776148582
73.31378299120234
0
195.50342130987292
987.2922776148582
83.088954056696
4.887585532746823
234.6041055718475
1036.1681329423266
78.20136852394917
4.887585532746823
190.6158357771261
992.179863147605
78.20136852394917
14.662756598240469
161.29032258064515
997.067448680352
87.97653958944281
4.887585532746823
219.94134897360703
1026.392961876833
97.75171065493646
9.775171065493646
166.177908113392
1011.7302052785924
87.97653958944281
4.887585532746823
166.177908113392
1021.505376344086
87.97653958944281
0
166.177908113392
987.2922776148582
107.52688172043011
9.775171065493646
312.8054740957967
943.3040078201368
102.63929618768329
0
239.49169110459434
987.2922776148582
92.86412512218963
4.887585532746823
151.5151515151515
982.4046920821114
107.52688172043011
4.887585532746823
195.50342130987292
997.067448680352
102.63929618768329
4.887585532746823
107.52688172043011
982.4046920821114
122.18963831867057
4.887585532746823
127.0772238514174
1055.7184750733138
112.41446725317694
9.775171065493646
127.0772238514174
992.179863147605
92.86412512218963
14.662756598240469
102.63929618768329
982.4046920821114
122.18963831867057
4.887585532746823
127.0772238514174
972.6295210166178
102.63929618768329
9.775171065493646
131.96480938416423
1026.392961876833
102.63929618768329
14.662756598240469
112.41446725317694
987.2922776148582
102.63929618768329
4.887585532746823
107.52688172043011
1036.1681329423266
102.63929618768329
4.887585532746823
87.97653958944281
1001.9550342130988
131.96480938416423
4.887585532746823
117.30205278592375
972.6295210166178
112.41446725317694
9.775171065493646
92.86412512218963
997.067448680352
112.41446725317694
4.887585532746823
87.97653958944281
972.6295210166178
112.41446725317694
4.887585532746823
97.75171065493646
1016.6177908113392
107.52688172043011
4.887585532746823
78.20136852394917
1016.6177908113392
127.0772238514174
4.887585532746823
87.97653958944281
1089.9315738025416
122.18963831867057
4.887585532746823
68.42619745845552
1011.7302052785924
131.96480938416423
9.775171065493646
117.30205278592375
1006.8426197458456
136.85239491691104
9.775171065493646
48.87585532746823
948.1915933528837
117.30205278592375
14.662756598240469
92.86412512218963
1011.7302052785924
107.52688172043011
9.775171065493646
122.18963831867057
982.4046920821114
127.0772238514174
9.775171065493646
87.97653958944281
997.067448680352
141.73998044965788
4.887585532746823
53.763440860215056
997.067448680352
112.41446725317694
4.887585532746823
87.97653958944281
1045.9433040078202
102.63929618768329
9.775171065493646
39.100684261974585
874.8778103616813
278.5923753665689
9.775171065493646
9.775171065493646
718.475073313783
527.8592375366569
9.775171065493646
4.887585532746823
718.475073313783
527.8592375366569
9.775171065493646
9.775171065493646
650.0488758553274
625.6109481915934
14.662756598240469
4.887585532746823
601.1730205278592
542.5219941348973
9.775171065493646
4.887585532746823
635.386119257087
645.1612903225806
14.662756598240469
4.887585532746823
591.3978494623656
620.7233626588466
24.437927663734115
4.887585532746823
576.7350928641251
547.4095796676442
9.775171065493646
4.887585532746823
654.9364613880742
518.0840664711633
14.662756598240469
4.887585532746823
601.1730205278592
615.8357771260997
19.550342130987293
9.775171065493646
596.2854349951124
625.6109481915934
9.775171065493646
4.887585532746823
596.2854349951124
566.9599217986315
14.662756598240469
9.775171065493646
571.8475073313783
566.9599217986315
14.662756598240469
4.887585532746823
576.7350928641251
591.3978494623656
14.662756598240469
4.887585532746823
645.1612903225806
654.9364613880742
19.550342130987293
4.887585532746823
557.1847507331378
513.1964809384165
14.662756598240469
9.775171065493646
640.2737047898338
503.4213098729228
24.437927663734115
0
522.9716520039101
645.1612903225806
19.550342130987293
4.887585532746823
596.2854349951124
826.0019550342131
19.550342130987293
0
518.0840664711633
728.2502443792766
19.550342130987293
0
615.8357771260997
332.355816226784
9.775171065493646
0
420.33235581622677
1510.2639296187683
92.86412512218963
4.887585532746823
679.3743890518084
1158.357771260997
48.87585532746823
0
547.4095796676442
630.4985337243402
19.550342130987293
9.775171065493646
9.775171065493646
694.0371456500488
430.10752688172045
19.550342130987293
58.651026392961874
757.5757575757576
278.5923753665689
19.550342130987293
63.5386119257087
1173.0205278592375
58.651026392961874
141.73998044965788
303.030303030303
1192.5708699902248
34.21309872922776
48.87585532746823
210.16617790811338
977.5171065493646
449.65786901270775
29.325513196480937
1700.8797653958945
327.4682306940371
430.10752688172045
19.550342130987293
415.44477028347995
830.8895405669599
381.2316715542522
63.5386119257087
1060.6060606060605
68.42619745845552
4.887585532746823
1236.5591397849462
659.8240469208212
356.7937438905181
19.550342130987293
337.2434017595308
640.2737047898338
698.9247311827957
14.662756598240469
92.86412512218963
2130.987292277615
63.5386119257087
205.27859237536657
249.266862170088
953.0791788856305
43.988269794721404
9.775171065493646
122.18963831867057
2233.626588465298
102.63929618768329
9.775171065493646
464.3206256109482
542.5219941348973
215.05376344086022
4.887585532746823
337.2434017595308
1515.1515151515152
83.088954056696
4.887585532746823
4.887585532746823
1383.186705767351
566.9599217986315
97.75171065493646
439.88269794721407
566.9599217986315
78.20136852394917
14.662756598240469
278.5923753665689
1466.275659824047
73.31378299120234
9.775171065493646
219.94134897360703
1173.0205278592375
68.42619745845552
39.100684261974585
757.5757575757576
581.622678396872
19.550342130987293
4.887585532746823
215.05376344086022
1021.505376344086
356.7937438905181
19.550342130987293
444.7702834799609
1085.0439882697947
107.52688172043011
14.662756598240469
391.00684261974584
909.0909090909091
48.87585532746823
0
840.6647116324535
777.1260997067449
19.550342130987293
4.887585532746823
488.7585532746823
782.0136852394917
24.437927663734115
9.775171065493646
464.3206256109482
1021.505376344086
43.988269794721404
4.887585532746823
141.73998044965788
1207.2336265884653
68.42619745845552
0
39.100684261974585
410.55718475073314
1422.2873900293255
34.21309872922776
73.31378299120234
1045.9433040078202
444.7702834799609
24.437927663734115
4.887585532746823
928.6412512218964
610.9481915933529
34.21309872922776
14.662756598240469
586.5102639296188
826.0019550342131
24.437927663734115
4.887585532746823
865.1026392961877
434.99511241446726
29.325513196480937
9.775171065493646
869.9902248289345
298.1427174975562
39.100684261974585
4.887585532746823
410.55718475073314
1055.7184750733138
107.52688172043011
4.887585532746823
156.40273704789834
1041.0557184750733
156.40273704789834
14.662756598240469
166.177908113392
1177.9081133919844
161.29032258064515
4.887585532746823
0
806.4516129032259
361.6813294232649
14.662756598240469
4.887585532746823
865.1026392961877
938.41642228739
29.325513196480937
9.775171065493646
625.6109481915934
713.5874877810362
24.437927663734115
9.775171065493646
552.297165200391
381.2316715542522
58.651026392961874
4.887585532746823
982.4046920821114
566.9599217986315
19.550342130987293
9.775171065493646
581.622678396872
869.9902248289345
19.550342130987293
4.887585532746823
645.1612903225806
811.3391984359727
19.550342130987293
9.775171065493646
689.149560117302
782.0136852394917
19.550342130987293
9.775171065493646
669.5992179863148
430.10752688172045
24.437927663734115
0
376.3440860215054
1036.1681329423266
117.30205278592375
0
322.5806451612903
1006.8426197458456
73.31378299120234
9.775171065493646
454.54545454545456
1085.0439882697947
78.20136852394917
9.775171065493646
244.37927663734115
1124.1446725317694
127.0772238514174
9.775171065493646
239.49169110459434
1011.7302052785924
83.088954056696
9.775171065493646
224.82893450635387
1392.9618768328446
63.5386119257087
0
190.6158357771261
1011.7302052785924
102.63929618768329
4.887585532746823
249.266862170088
987.2922776148582
83.088954056696
9.775171065493646
244.37927663734115
1080.156402737048
127.0772238514174
14.662756598240469
298.1427174975562
1041.0557184750733
68.42619745845552
4.887585532746823
224.82893450635387
1099.7067448680352
83.088954056696
0
219.94134897360703
1446.7253176930597
73.31378299120234
4.887585532746823
254.1544477028348
1041.0557184750733
83.088954056696
9.775171065493646
293.2551319648094
1050.830889540567
87.97653958944281
4.887585532746823
405.66959921798633
972.6295210166178
68.42619745845552
9.775171065493646
210.16617790811338
1050.830889540567
87.97653958944281
9.775171065493646
312.8054740957967
1168.1329423264908
48.87585532746823
4.887585532746823
224.82893450635387
1085.0439882697947
83.088954056696
9.775171065493646
224.82893450635387
1026.392961876833
166.177908113392
4.887585532746823
175.95307917888562
1045.9433040078202
131.96480938416423
4.887585532746823
166.177908113392
1070.3812316715544
87.97653958944281
0
234.6041055718475
967.741935483871
141.73998044965788
4.887585532746823
151.5151515151515
1163.245356793744
97.75171065493646
4.887585532746823
283.47996089931576
1182.7956989247311
87.97653958944281
0
185.72825024437927
1065.4936461388074
131.96480938416423
4.887585532746823
234.6041055718475
1011.7302052785924
107.52688172043011
9.775171065493646
195.50342130987292
1089.9315738025416
102.63929618768329
9.775171065493646
200.39100684261976
1168.1329423264908
112.41446725317694
4.887585532746823
210.16617790811338
1075.268817204301
185.72825024437927
14.662756598240469
107.52688172043011
1109.4819159335289
117.30205278592375
4.887585532746823
127.0772238514174
913.9784946236559
107.52688172043011
14.662756598240469
322.5806451612903
1173.0205278592375
122.18963831867057
4.887585532746823
146.6275659824047
1021.505376344086
122.18963831867057
9.775171065493646
146.6275659824047
1182.7956989247311
78.20136852394917
9.775171065493646
107.52688172043011
1085.0439882697947
127.0772238514174
9.775171065493646
239.49169110459434
972.6295210166178
107.52688172043011
9.775171065493646
87.97653958944281
1089.9315738025416
102.63929618768329
4.887585532746823
122.18963831867057
1109.4819159335289
102.63929618768329
4.887585532746823
166.177908113392
933.5288367546432
141.73998044965788
9.775171065493646
229.7165200391007
1055.7184750733138
102.63929618768329
9.775171065493646
73.31378299120234
1099.7067448680352
117.30205278592375
4.887585532746823
175.95307917888562
1070.3812316715544
73.31378299120234
4.887585532746823
131.96480938416423
1119.2570869990225
127.0772238514174
14.662756598240469
83.088954056696
1026.392961876833
107.52688172043011
0
92.86412512218963
909.0909090909091
107.52688172043011
4.887585532746823
166.177908113392
826.0019550342131
87.97653958944281
4.887585532746823
244.37927663734115
1006.8426197458456
127.0772238514174
4.887585532746823
48.87585532746823
1119.2570869990225
151.5151515151515
4.887585532746823
68.42619745845552
1094.8191593352883
146.6275659824047
14.662756598240469
122.18963831867057
1041.0557184750733
190.6158357771261
14.662756598240469
39.100684261974585
1089.9315738025416
244.37927663734115
19.550342130987293
9.775171065493646
650.0488758553274
674.4868035190616
19.550342130987293
4.887585532746823
615.8357771260997
610.9481915933529
14.662756598240469
14.662756598240469
474.09579667644186
664.711632453568
24.437927663734115
4.887585532746823
356.7937438905181
953.0791788856305
53.763440860215056
9.775171065493646
298.1427174975562
757.5757575757576
48.87585532746823
4.887585532746823
434.99511241446726
1075.268817204301
53.763440860215056
9.775171065493646
263.92961876832845
997.067448680352
92.86412512218963
9.775171065493646
391.00684261974584
884.652981427175
48.87585532746823
4.887585532746823
332.355816226784
909.0909090909091
68.42619745845552
0
263.92961876832845
1265.8846529814273
63.5386119257087
0
425.21994134897363
904.2033235581623
48.87585532746823
9.775171065493646
513.1964809384165
733.1378299120234
29.325513196480937
9.775171065493646
268.81720430107526
962.8543499511242
63.5386119257087
9.775171065493646
342.1309872922776
1129.032258064516
48.87585532746823
9.775171065493646
293.2551319648094
997.067448680352
43.988269794721404
9.775171065493646
87.97653958944281
1026.392961876833
107.52688172043011
9.775171065493646
34.21309872922776
923.7536656891496
469.208211143695
29.325513196480937
9.775171065493646
454.54545454545456
679.3743890518084
24.437927663734115
9.775171065493646
312.8054740957967
953.0791788856305
53.763440860215056
9.775171065493646
268.81720430107526
913.9784946236559
107.52688172043011
14.662756598240469
87.97653958944281
1036.1681329423266
58.651026392961874
0
190.6158357771261
894.4281524926686
43.988269794721404
9.775171065493646
29.325513196480937
694.0371456500488
229.7165200391007
9.775171065493646
9.775171065493646
522.9716520039101
757.5757575757576
19.550342130987293
4.887585532746823
493.6461388074291
474.09579667644186
34.21309872922776
9.775171065493646
53.763440860215056
874.8778103616813
68.42619745845552
4.887585532746823
171.0654936461388
957.9667644183774
63.5386119257087
9.775171065493646
283.47996089931576
884.652981427175
78.20136852394917
4.887585532746823
391.00684261974584
865.1026392961877
34.21309872922776
0
14.662756598240469
884.652981427175
400.7820136852395
14.662756598240469
9.775171065493646
439.88269794721407
879.7653958944281
43.988269794721404
4.887585532746823
351.90615835777123
1089.9315738025416
53.763440860215056
9.775171065493646
273.7047898338221
987.2922776148582
68.42619745845552
9.775171065493646
283.47996089931576
1006.8426197458456
102.63929618768329
4.887585532746823
278.5923753665689
850.4398826979473
78.20136852394917
9.775171065493646
229.7165200391007
1011.7302052785924
63.5386119257087
4.887585532746823
283.47996089931576
997.067448680352
73.31378299120234
9.775171065493646
273.7047898338221
992.179863147605
63.5386119257087
9.775171065493646
146.6275659824047
913.9784946236559
78.20136852394917
4.887585532746823
405.66959921798633
894.4281524926686
73.31378299120234
9.775171065493646
166.177908113392
1080.156402737048
87.97653958944281
0
420.33235581622677
762.4633431085044
78.20136852394917
9.775171065493646
239.49169110459434
860.2150537634409
68.42619745845552
4.887585532746823
219.94134897360703
1011.7302052785924
73.31378299120234
4.887585532746823
166.177908113392
1011.7302052785924
122.18963831867057
9.775171065493646
175.95307917888562
992.179863147605
87.97653958944281
9.775171065493646
229.7165200391007
972.6295210166178
78.20136852394917
4.887585532746823
224.82893450635387
1104.594330400782
102.63929618768329
4.887585532746823
127.0772238514174
948.1915933528837
97.75171065493646
0
171.0654936461388
1001.9550342130988
112.41446725317694
4.887585532746823
195.50342130987292
1231.6715542521995
87.97653958944281
4.887585532746823
156.40273704789834
957.9667644183774
107.52688172043011
0
156.40273704789834
938.41642228739
92.86412512218963
0
117.30205278592375
869.9902248289345
83.088954056696
0
175.95307917888562
1050.830889540567
92.86412512218963
9.775171065493646
127.0772238514174
933.5288367546432
97.75171065493646
9.775171065493646
112.41446725317694
938.41642228739
102.63929618768329
4.887585532746823
117.30205278592375
904.2033235581623
68.42619745845552
0
210.16617790811338
913.9784946236559
127.0772238514174
4.887585532746823
102.63929618768329
850.4398826979473
92.86412512218963
9.775171065493646
127.0772238514174
967.741935483871
97.75171065493646
9.775171065493646
83.088954056696
938.41642228739
107.52688172043011
4.887585532746823
136.85239491691104
1021.505376344086
107.52688172043011
4.887585532746823
48.87585532746823
909.0909090909091
127.0772238514174
4.887585532746823
156.40273704789834
1148.5826001955033
102.63929618768329
4.887585532746823
102.63929618768329
845.5522971652003
53.763440860215056
9.775171065493646
146.6275659824047
943.3040078201368
92.86412512218963
9.775171065493646
63.5386119257087
997.067448680352
112.41446725317694
9.775171065493646
141.73998044965788
1016.6177908113392
127.0772238514174
4.887585532746823
112.41446725317694
928.6412512218964
68.42619745845552
4.887585532746823
63.5386119257087
933.5288367546432
107.52688172043011
9.775171065493646
83.088954056696
1099.7067448680352
131.96480938416423
14.662756598240469
83.088954056696
967.741935483871
102.63929618768329
0
68.42619745845552
1036.1681329423266
127.0772238514174
4.887585532746823
83.088954056696
962.8543499511242
87.97653958944281
9.775171065493646
58.651026392961874
957.9667644183774
122.18963831867057
4.887585532746823
48.87585532746823
1036.1681329423266
112.41446725317694
9.775171065493646
122.18963831867057
1001.9550342130988
107.52688172043011
4.887585532746823
122.18963831867057
1006.8426197458456
107.52688172043011
4.887585532746823
92.86412512218963
953.0791788856305
122.18963831867057
4.887585532746823
39.100684261974585
850.4398826979473
312.8054740957967
19.550342130987293
4.887585532746823
620.7233626588466
434.99511241446726
29.325513196480937
9.775171065493646
312.8054740957967
913.9784946236559
58.651026392961874
9.775171065493646
376.3440860215054
938.41642228739
78.20136852394917
4.887585532746823
351.90615835777123
889.5405669599218
63.5386119257087
4.887585532746823
283.47996089931576
967.741935483871
63.5386119257087
9.775171065493646
366.5689149560117
997.067448680352
63.5386119257087
9.775171065493646
224.82893450635387
928.6412512218964
68.42619745845552
4.887585532746823
303.030303030303
918.8660801564027
68.42619745845552
9.775171065493646
278.5923753665689
938.41642228739
58.651026392961874
4.887585532746823
273.7047898338221
957.9667644183774
73.31378299120234
4.887585532746823
298.1427174975562
918.8660801564027
68.42619745845552
9.775171065493646
234.6041055718475
923.7536656891496
68.42619745845552
4.887585532746823
337.2434017595308
923.7536656891496
68.42619745845552
4.887585532746823
234.6041055718475
884.652981427175
68.42619745845552
4.887585532746823
210.16617790811338
997.067448680352
78.20136852394917
9.775171065493646
229.7165200391007
992.179863147605
68.42619745845552
14.662756598240469
219.94134897360703
987.2922776148582
78.20136852394917
9.775171065493646
273.7047898338221
1021.505376344086
78.20136852394917
4.887585532746823
180.84066471163246
904.2033235581623
68.42619745845552
4.887585532746823
215.05376344086022
962.8543499511242
78.20136852394917
9.775171065493646
215.05376344086022
977.5171065493646
68.42619745845552
0
219.94134897360703
948.1915933528837
78.20136852394917
4.887585532746823
171.0654936461388
972.6295210166178
73.31378299120234
0
171.0654936461388
948.1915933528837
92.86412512218963
4.887585532746823
229.7165200391007
977.5171065493646
87.97653958944281
4.887585532746823
185.72825024437927
962.8543499511242
83.088954056696
4.887585532746823
166.177908113392
987.2922776148582
78.20136852394917
0
185.72825024437927
987.2922776148582
97.75171065493646
4.887585532746823
175.95307917888562
987.2922776148582
92.86412512218963
9.775171065493646
141.73998044965788
972.6295210166178
87.97653958944281
4.887585532746823
141.73998044965788
982.4046920821114
87.97653958944281
9.775171065493646
122.18963831867057
953.0791788856305
87.97653958944281
0
166.177908113392
972.6295210166178
92.86412512218963
9.775171065493646
146.6275659824047
943.3040078201368
97.75171065493646
4.887585532746823
146.6275659824047
953.0791788856305
97.75171065493646
4.887585532746823
122.18963831867057
972.6295210166178
107.52688172043011
9.775171065493646
127.0772238514174
967.741935483871
87.97653958944281
0
107.52688172043011
997.067448680352
92.86412512218963
9.775171065493646
122.18963831867057
943.3040078201368
97.75171065493646
9.775171065493646
87.97653958944281
957.9667644183774
107.52688172043011
4.887585532746823
112.41446725317694
967.741935483871
97.75171065493646
4.887585532746823
73.31378299120234
982.4046920821114
112.41446725317694
0
92.86412512218963
987.2922776148582
92.86412512218963
4.887585532746823
92.86412512218963
982.4046920821114
102.63929618768329
4.887585532746823
83.088954056696
982.4046920821114
102.63929618768329
9.775171065493646
83.088954056696
982.4046920821114
107.52688172043011
9.775171065493646
92.86412512218963
987.2922776148582
107.52688172043011
9.775171065493646
87.97653958944281
972.6295210166178
102.63929618768329
9.775171065493646
87.97653958944281
957.9667644183774
107.52688172043011
4.887585532746823
63.5386119257087
987.2922776148582
107.52688172043011
9.775171065493646
58.651026392961874
957.9667644183774
122.18963831867057
9.775171065493646
63.5386119257087
972.6295210166178
122.18963831867057
4.887585532746823
78.20136852394917
997.067448680352
127.0772238514174
14.662756598240469
53.763440860215056
962.8543499511242
112.41446725317694
0
83.088954056696
1006.8426197458456
127.0772238514174
4.887585532746823
53.763440860215056
992.179863147605
131.96480938416423
4.887585532746823
39.100684261974585
855.3274682306941
268.81720430107526
19.550342130987293
0
615.8357771260997
571.8475073313783
14.662756598240469
9.775171065493646
620.7233626588466
537.6344086021505
19.550342130987293
4.887585532746823
620.7233626588466
596.2854349951124
19.550342130987293
9.775171065493646
625.6109481915934
576.7350928641251
14.662756598240469
4.887585532746823
581.622678396872
601.1730205278592
14.662756598240469
4.887585532746823
571.8475073313783
557.1847507331378
9.775171065493646
9.775171065493646
571.8475073313783
625.6109481915934
4.887585532746823
4.887585532746823
566.9599217986315
606.060606060606
14.662756598240469
0
547.4095796676442
620.7233626588466
19.550342130987293
0
518.0840664711633
630.4985337243402
19.550342130987293
4.887585532746823
537.6344086021505
650.0488758553274
24.437927663734115
4.887585532746823
547.4095796676442
635.386119257087
14.662756598240469
0
532.7468230694037
606.060606060606
19.550342130987293
9.775171065493646
576.7350928641251
610.9481915933529
19.550342130987293
9.775171065493646
513.1964809384165
591.3978494623656
24.437927663734115
0
508.3088954056696
635.386119257087
24.437927663734115
4.887585532746823
552.297165200391
650.0488758553274
19.550342130987293
0
508.3088954056696
664.711632453568
24.437927663734115
4.887585532746823
503.4213098729228
689.149560117302
19.550342130987293
4.887585532746823
498.533724340176
664.711632453568
19.550342130987293
4.887585532746823
478.9833822091887
879.7653958944281
43.988269794721404
4.887585532746823
219.94134897360703
992.179863147605
83.088954056696
4.887585532746823
171.0654936461388
1001.9550342130988
83.088954056696
9.775171065493646
175.95307917888562
987.2922776148582
83.088954056696
4.887585532746823
200.39100684261976
1006.8426197458456
87.97653958944281
4.887585532746823
151.5151515151515
1055.7184750733138
83.088954056696
4.887585532746823
146.6275659824047
1011.7302052785924
83.088954056696
9.775171065493646
151.5151515151515
1016.6177908113392
92.86412512218963
0
146.6275659824047
1021.505376344086
102.63929618768329
14.662756598240469
131.96480938416423
1011.7302052785924
92.86412512218963
9.775171065493646
146.6275659824047
1050.830889540567
102.63929618768329
9.775171065493646
127.0772238514174
1036.1681329423266
102.63929618768329
9.775171065493646
112.41446725317694
1001.9550342130988
97.75171065493646
0
127.0772238514174
1021.505376344086
102.63929618768329
9.775171065493646
92.86412512218963
1001.9550342130988
112.41446725317694
9.775171065493646
112.41446725317694
1021.505376344086
117.30205278592375
4.887585532746823
87.97653958944281
992.179863147605
97.75171065493646
0
92.86412512218963
1036.1681329423266
112.41446725317694
4.887585532746823
87.97653958944281
1011.7302052785924
102.63929618768329
4.887585532746823
107.52688172043011
1065.4936461388074
122.18963831867057
0
92.86412512218963
1045.9433040078202
117.30205278592375
14.662756598240469
83.088954056696
992.179863147605
112.41446725317694
9.775171065493646
78.20136852394917
1011.7302052785924
117.30205278592375
4.887585532746823
63.5386119257087
997.067448680352
127.0772238514174
9.775171065493646
73.31378299120234
1011.7302052785924
122.18963831867057
4.887585532746823
73.31378299120234
997.067448680352
117.30205278592375
4.887585532746823
73.31378299120234
997.067448680352
122.18963831867057
0
78.20136852394917
1001.9550342130988
122.18963831867057
4.887585532746823
73.31378299120234
1001.9550342130988
131.96480938416423
4.887585532746823
53.763440860215056
1011.7302052785924
127.0772238514174
9.775171065493646
58.651026392961874
1006.8426197458456
136.85239491691104
14.662756598240469
43.988269794721404
899.3157380254155
278.5923753665689
19.550342130987293
9.775171065493646
718.475073313783
576.7350928641251
19.550342130987293
0
606.060606060606
576.7350928641251
14.662756598240469
0
620.7233626588466
552.297165200391
14.662756598240469
0
625.6109481915934
606.060606060606
14.662756598240469
4.887585532746823
601.1730205278592
606.060606060606
19.550342130987293
9.775171065493646
601.1730205278592
576.7350928641251
19.550342130987293
0
596.2854349951124
596.2854349951124
9.775171065493646
4.887585532746823
606.060606060606
654.9364613880742
19.550342130987293
9.775171065493646
537.6344086021505
522.9716520039101
14.662756598240469
4.887585532746823
552.297165200391
640.2737047898338
14.662756598240469
9.775171065493646
620.7233626588466
576.7350928641251
9.775171065493646
9.775171065493646
625.6109481915934
669.5992179863148
14.662756598240469
9.775171065493646
581.622678396872
650.0488758553274
24.437927663734115
0
513.1964809384165
738.0254154447703
19.550342130987293
14.662756598240469
547.4095796676442
782.0136852394917
19.550342130987293
9.775171065493646
322.5806451612903
948.1915933528837
34.21309872922776
9.775171065493646
268.81720430107526
1187.683284457478
102.63929618768329
4.887585532746823
141.73998044965788
967.741935483871
107.52688172043011
4.887585532746823
254.1544477028348
1036.1681329423266
107.52688172043011
9.775171065493646
210.16617790811338
1055.7184750733138
78.20136852394917
9.775171065493646
107.52688172043011
684.2619745845552
107.52688172043011
4.887585532746823
234.6041055718475
1119.2570869990225
43.988269794721404
14.662756598240469
4.887585532746823
967.741935483871
581.622678396872
9.775171065493646
9.775171065493646
1143.6950146627566
542.5219941348973
9.775171065493646
0
1124.1446725317694
312.8054740957967
19.550342130987293
0
283.47996089931576
1177.9081133919844
107.52688172043011
4.887585532746823
786.9012707722385
581.622678396872
39.100684261974585
4.887585532746823
0
1217.008797653959
366.5689149560117
19.550342130987293
830.8895405669599
1246.3343108504398
39.100684261974585
87.97653958944281
288.36754643206257
542.5219941348973
19.550342130987293
0
562.0723362658847
1016.6177908113392
29.325513196480937
4.887585532746823
112.41446725317694
840.6647116324535
869.9902248289345
303.030303030303
278.5923753665689
312.8054740957967
175.95307917888562
415.44477028347995
698.9247311827957
356.7937438905181
107.52688172043011
58.651026392961874
1031.2805474095796
127.0772238514174
14.662756598240469
161.29032258064515
518.0840664711633
229.7165200391007
9.775171065493646
376.3440860215054
620.7233626588466
474.09579667644186
24.437927663734115
48.87585532746823
977.5171065493646
791.7888563049853
29.325513196480937
9.775171065493646
1402.7370478983382
122.18963831867057
4.887585532746823
43.988269794721404
738.0254154447703
767.3509286412512
19.550342130987293
874.8778103616813
1089.9315738025416
102.63929618768329
4.887585532746823
4.887585532746823
904.2033235581623
303.030303030303
19.550342130987293
29.325513196480937
938.41642228739
171.0654936461388
19.550342130987293
0
210.16617790811338
1050.830889540567
161.29032258064515
4.887585532746823
29.325513196480937
1652.0039100684262
171.0654936461388
9.775171065493646
615.8357771260997
508.3088954056696
83.088954056696
4.887585532746823
337.2434017595308
904.2033235581623
34.21309872922776
0
68.42619745845552
1026.392961876833
244.37927663734115
4.887585532746823
92.86412512218963
1309.8729227761485
156.40273704789834
9.775171065493646
449.65786901270775
273.7047898338221
312.8054740957967
24.437927663734115
9.775171065493646
738.0254154447703
503.4213098729228
14.662756598240469
0
664.711632453568
581.622678396872
24.437927663734115
14.662756598240469
747.8005865102639
566.9599217986315
14.662756598240469
0
742.9130009775171
909.0909090909091
24.437927663734115
4.887585532746823
635.386119257087
728.2502443792766
24.437927663734115
4.887585532746823
562.0723362658847
650.0488758553274
14.662756598240469
0
1001.9550342130988
650.0488758553274
19.550342130987293
9.775171065493646
821.1143695014663
391.00684261974584
14.662756598240469
0
298.1427174975562
1016.6177908113392
53.763440860215056
4.887585532746823
312.8054740957967
948.1915933528837
29.325513196480937
4.887585532746823
102.63929618768329
865.1026392961877
151.5151515151515
14.662756598240469
43.988269794721404
904.2033235581623
606.060606060606
24.437927663734115
9.775171065493646
830.8895405669599
557.1847507331378
14.662756598240469
9.775171065493646
845.5522971652003
454.54545454545456
29.325513196480937
9.775171065493646
547.4095796676442
601.1730205278592
9.775171065493646
14.662756598240469
151.5151515151515
1187.683284457478
151.5151515151515
9.775171065493646
557.1847507331378
816.2267839687195
39.100684261974585
0
503.4213098729228
454.54545454545456
29.325513196480937
0
9.775171065493646
987.2922776148582
205.27859237536657
14.662756598240469
0
1080.156402737048
244.37927663734115
14.662756598240469
9.775171065493646
498.533724340176
630.4985337243402
34.21309872922776
9.775171065493646
180.84066471163246
821.1143695014663
102.63929618768329
4.887585532746823
527.8592375366569
430.10752688172045
29.325513196480937
9.775171065493646
351.90615835777123
1006.8426197458456
146.6275659824047
9.775171065493646
136.85239491691104
1080.156402737048
63.5386119257087
9.775171065493646
254.1544477028348
640.2737047898338
102.63929618768329
4.887585532746823
78.20136852394917
1026.392961876833
117.30205278592375
4.887585532746823
48.87585532746823
1163.245356793744
146.6275659824047
9.775171065493646
141.73998044965788
923.7536656891496
127.0772238514174
9.775171065493646
117.30205278592375
967.741935483871
146.6275659824047
9.775171065493646
107.52688172043011
1041.0557184750733
151.5151515151515
14.662756598240469
195.50342130987292
1094.8191593352883
97.75171065493646
4.887585532746823
68.42619745845552
997.067448680352
107.52688172043011
9.775171065493646
141.73998044965788
830.8895405669599
122.18963831867057
4.887585532746823
215.05376344086022
1016.6177908113392
102.63929618768329
14.662756598240469
122.18963831867057
869.9902248289345
205.27859237536657
14.662756598240469
19.550342130987293
1148.5826001955033
171.0654936461388
9.775171065493646
9.775171065493646
733.1378299120234
752.6881720430108
19.550342130987293
4.887585532746823
782.0136852394917
361.6813294232649
19.550342130987293
9.775171065493646
283.47996089931576
909.0909090909091
92.86412512218963
9.775171065493646
430.10752688172045
777.1260997067449
92.86412512218963
9.775171065493646
327.4682306940371
1080.156402737048
63.5386119257087
9.775171065493646
410.55718475073314
1055.7184750733138
48.87585532746823
4.887585532746823
327.4682306940371
928.6412512218964
78.20136852394917
4.887585532746823
39.100684261974585
948.1915933528837
224.82893450635387
9.775171065493646
29.325513196480937
782.0136852394917
405.66959921798633
24.437927663734115
9.775171065493646
879.7653958944281
542.5219941348973
14.662756598240469
4.887585532746823
826.0019550342131
366.5689149560117
24.437927663734115
0
405.66959921798633
1016.6177908113392
63.5386119257087
9.775171065493646
307.91788856304987
943.3040078201368
58.651026392961874
4.887585532746823
332.355816226784
1036.1681329423266
63.5386119257087
4.887585532746823
434.99511241446726
1094.8191593352883
68.42619745845552
4.887585532746823
366.5689149560117
1148.5826001955033
107.52688172043011
4.887585532746823
185.72825024437927
1065.4936461388074
102.63929618768329
4.887585532746823
415.44477028347995
992.179863147605
131.96480938416423
9.775171065493646
83.088954056696
855.3274682306941
83.088954056696
4.887585532746823
317.6930596285435
1114.3695014662756
156.40273704789834
9.775171065493646
229.7165200391007
1036.1681329423266
83.088954056696
9.775171065493646
229.7165200391007
1036.1681329423266
122.18963831867057
4.887585532746823
156.40273704789834
1129.032258064516
92.86412512218963
4.887585532746823
293.2551319648094
933.5288367546432
78.20136852394917
0
141.73998044965788
1085.0439882697947
87.97653958944281
4.887585532746823
293.2551319648094
752.6881720430108
87.97653958944281
4.887585532746823
312.8054740957967
1021.505376344086
83.088954056696
4.887585532746823
151.5151515151515
1124.1446725317694
92.86412512218963
14.662756598240469
117.30205278592375
987.2922776148582
122.18963831867057
9.775171065493646
73.31378299120234
1138.8074291300097
131.96480938416423
9.775171065493646
229.7165200391007
733.1378299120234
102.63929618768329
14.662756598240469
87.97653958944281
1089.9315738025416
117.30205278592375
4.887585532746823
239.49169110459434
962.8543499511242
97.75171065493646
4.887585532746823
39.100684261974585
948.1915933528837
200.39100684261976
14.662756598240469
68.42619745845552
830.8895405669599
180.84066471163246
9.775171065493646
24.437927663734115
772.238514173998
415.44477028347995
19.550342130987293
9.775171065493646
439.88269794721407
909.0909090909091
53.763440860215056
4.887585532746823
410.55718475073314
987.2922776148582
43.988269794721404
9.775171065493646
175.95307917888562
962.8543499511242
102.63929618768329
4.887585532746823
68.42619745845552
1080.156402737048
146.6275659824047
9.775171065493646
171.0654936461388
1260.9970674486804
78.20136852394917
0
210.16617790811338
992.179863147605
73.31378299120234
0
87.97653958944281
1114.3695014662756
117.30205278592375
14.662756598240469
97.75171065493646
1026.392961876833
136.85239491691104
4.887585532746823
92.86412512218963
1080.156402737048
131.96480938416423
9.775171065493646
112.41446725317694
1177.9081133919844
122.18963831867057
9.775171065493646
14.662756598240469
923.7536656891496
371.45650048875854
24.437927663734115
9.775171065493646
806.4516129032259
635.386119257087
9.775171065493646
0
811.3391984359727
552.297165200391
9.775171065493646
14.662756598240469
552.297165200391
620.7233626588466
14.662756598240469
4.887585532746823
713.5874877810362
542.5219941348973
9.775171065493646
14.662756598240469
454.54545454545456
879.7653958944281
39.100684261974585
9.775171065493646
503.4213098729228
801.564027370479
24.437927663734115
4.887585532746823
405.66959921798633
1075.268817204301
73.31378299120234
4.887585532746823
278.5923753665689
1089.9315738025416
78.20136852394917
4.887585532746823
332.355816226784
982.4046920821114
58.651026392961874
4.887585532746823
342.1309872922776
1045.9433040078202
68.42619745845552
4.887585532746823
317.6930596285435
943.3040078201368
68.42619745845552
4.887585532746823
215.05376344086022
1124.1446725317694
58.651026392961874
0
356.7937438905181
1099.7067448680352
63.5386119257087
14.662756598240469
112.41446725317694
1011.7302052785924
58.651026392961874
4.887585532746823
293.2551319648094
1050.830889540567
83.088954056696
9.775171065493646
342.1309872922776
1143.6950146627566
43.988269794721404
0
58.651026392961874
1021.505376344086
219.94134897360703
9.775171065493646
43.988269794721404
835.7771260997067
444.7702834799609
19.550342130987293
4.887585532746823
601.1730205278592
894.4281524926686
19.550342130987293
0
493.6461388074291
664.711632453568
19.550342130987293
0
596.2854349951124
826.0019550342131
24.437927663734115
4.887585532746823
547.4095796676442
513.1964809384165
19.550342130987293
4.887585532746823
464.3206256109482
913.9784946236559
48.87585532746823
4.887585532746823
679.3743890518084
679.3743890518084
14.662756598240469
4.887585532746823
576.7350928641251
650.0488758553274
24.437927663734115
9.775171065493646
518.0840664711633
826.0019550342131
24.437927663734115
4.887585532746823
483.8709677419355
977.5171065493646
43.988269794721404
4.887585532746823
97.75171065493646
879.7653958944281
87.97653958944281
0
107.52688172043011
1045.9433040078202
83.088954056696
9.775171065493646
224.82893450635387
1070.3812316715544
112.41446725317694
9.775171065493646
29.325513196480937
1031.2805474095796
200.39100684261976
9.775171065493646
4.887585532746823
943.3040078201368
400.7820136852395
19.550342130987293
9.775171065493646
474.09579667644186
1050.830889540567
48.87585532746823
4.887585532746823
522.9716520039101
747.8005865102639
24.437927663734115
4.887585532746823
469.208211143695
1065.4936461388074
48.87585532746823
0
430.10752688172045
899.3157380254155
53.763440860215056
4.887585532746823
488.7585532746823
830.8895405669599
29.325513196480937
9.775171065493646
391.00684261974584
987.2922776148582
58.651026392961874
4.887585532746823
474.09579667644186
972.6295210166178
63.5386119257087
9.775171065493646
454.54545454545456
938.41642228739
53.763440860215056
0
439.88269794721407
1006.8426197458456
48.87585532746823
4.887585532746823
493.6461388074291
786.9012707722385
24.437927663734115
4.887585532746823
425.21994134897363
972.6295210166178
68.42619745845552
4.887585532746823
488.7585532746823
865.1026392961877
29.325513196480937
4.887585532746823
459.4330400782014
1119.2570869990225
68.42619745845552
4.887585532746823
483.8709677419355
982.4046920821114
58.651026392961874
0
327.4682306940371
1041.0557184750733
58.651026392961874
4.887585532746823
391.00684261974584
1065.4936461388074
58.651026392961874
9.775171065493646
434.99511241446726
1124.1446725317694
63.5386119257087
4.887585532746823
415.44477028347995
1109.4819159335289
58.651026392961874
4.887585532746823
332.355816226784
1006.8426197458456
63.5386119257087
0
342.1309872922776
1143.6950146627566
107.52688172043011
14.662756598240469
371.45650048875854
1050.830889540567
63.5386119257087
0
347.0185728250244
1050.830889540567
68.42619745845552
4.887585532746823
337.2434017595308
1060.6060606060605
83.088954056696
0
288.36754643206257
1031.2805474095796
73.31378299120234
0
342.1309872922776
1050.830889540567
73.31378299120234
0
283.47996089931576
1036.1681329423266
78.20136852394917
9.775171065493646
405.66959921798633
1124.1446725317694
73.31378299120234
9.775171065493646
249.266862170088
1138.8074291300097
87.97653958944281
9.775171065493646
190.6158357771261
1041.0557184750733
68.42619745845552
0
371.45650048875854
1182.7956989247311
102.63929618768329
4.887585532746823
117.30205278592375
913.9784946236559
117.30205278592375
14.662756598240469
263.92961876832845
972.6295210166178
73.31378299120234
0
219.94134897360703
1270.772238514174
102.63929618768329
4.887585532746823
259.04203323558164
1041.0557184750733
78.20136852394917
0
92.86412512218963
933.5288367546432
107.52688172043011
4.887585532746823
195.50342130987292
1182.7956989247311
122.18963831867057
9.775171065493646
210.16617790811338
1036.1681329423266
73.31378299120234
0
180.84066471163246
1080.156402737048
73.31378299120234
9.775171065493646
342.1309872922776
1422.2873900293255
83.088954056696
0
210.16617790811338
860.2150537634409
107.52688172043011
9.775171065493646
131.96480938416423
987.2922776148582
78.20136852394917
9.775171065493646
205.27859237536657
1060.6060606060605
78.20136852394917
4.887585532746823
190.6158357771261
1099.7067448680352
92.86412512218963
4.887585532746823
180.84066471163246
1075.268817204301
102.63929618768329
9.775171065493646
156.40273704789834
1124.1446725317694
117.30205278592375
4.887585532746823
127.0772238514174
1031.2805474095796
102.63929618768329
4.887585532746823
141.73998044965788
1060.6060606060605
92.86412512218963
0
151.5151515151515
1050.830889540567
97.75171065493646
0
146.6275659824047
1065.4936461388074
97.75171065493646
9.775171065493646
234.6041055718475
1085.0439882697947
92.86412512218963
4.887585532746823
141.73998044965788
1001.9550342130988
87.97653958944281
0
166.177908113392
1065.4936461388074
97.75171065493646
4.887585532746823
131.96480938416423
1075.268817204301
97.75171065493646
4.887585532746823
122.18963831867057
1021.505376344086
102.63929618768329
4.887585532746823
117.30205278592375
1089.9315738025416
122.18963831867057
9.775171065493646
83.088954056696
1075.268817204301
102.63929618768329
4.887585532746823
131.96480938416423
1011.7302052785924
87.97653958944281
9.775171065493646
127.0772238514174
1016.6177908113392
107.52688172043011
9.775171065493646
107.52688172043011
1021.505376344086
117.30205278592375
9.775171065493646
92.86412512218963
1041.0557184750733
112.41446725317694
0
87.97653958944281
1060.6060606060605
112.41446725317694
0
87.97653958944281
1026.392961876833
122.18963831867057
14.662756598240469
53.763440860215056
1016.6177908113392
131.96480938416423
0
43.988269794721404
913.9784946236559
278.5923753665689
14.662756598240469
4.887585532746823
698.9247311827957
566.9599217986315
19.550342130987293
0
664.711632453568
562.0723362658847
14.662756598240469
9.775171065493646
664.711632453568
557.1847507331378
14.662756598240469
4.887585532746823
669.5992179863148
562.0723362658847
19.550342130987293
0
703.8123167155425
532.7468230694037
14.662756598240469
9.775171065493646
596.2854349951124
620.7233626588466
9.775171065493646
4.887585532746823
596.2854349951124
566.9599217986315
9.775171065493646
9.775171065493646
654.9364613880742
610.9481915933529
19.550342130987293
4.887585532746823
625.6109481915934
591.3978494623656
14.662756598240469
4.887585532746823
659.8240469208212
645.1612903225806
19.550342130987293
4.887585532746823
596.2854349951124
659.8240469208212
14.662756598240469
0
620.7233626588466
620.7233626588466
29.325513196480937
4.887585532746823
630.4985337243402
610.9481915933529
9.775171065493646
9.775171065493646
547.4095796676442
679.3743890518084
14.662756598240469
4.887585532746823
508.3088954056696
689.149560117302
29.325513196480937
4.887585532746823
537.6344086021505
659.8240469208212
19.550342130987293
9.775171065493646
532.7468230694037
679.3743890518084
19.550342130987293
4.887585532746823
566.9599217986315
625.6109481915934
19.550342130987293
0
552.297165200391
654.9364613880742
14.662756598240469
4.887585532746823
532.7468230694037
689.149560117302
24.437927663734115
4.887585532746823
532.7468230694037
674.4868035190616
19.550342130987293
4.887585532746823
513.1964809384165
713.5874877810362
19.550342130987293
4.887585532746823
503.4213098729228
708.6999022482894
24.437927663734115
0
513.1964809384165
689.149560117302
19.550342130987293
9.775171065493646
493.6461388074291
694.0371456500488
19.550342130987293
9.775171065493646
576.7350928641251
718.475073313783
24.437927663734115
4.887585532746823
488.7585532746823
738.0254154447703
19.550342130987293
9.775171065493646
483.8709677419355
938.41642228739
43.988269794721404
4.887585532746823
156.40273704789834
1021.505376344086
97.75171065493646
4.887585532746823
151.5151515151515
1050.830889540567
97.75171065493646
4.887585532746823
141.73998044965788
1026.392961876833
102.63929618768329
4.887585532746823
166.177908113392
1089.9315738025416
107.52688172043011
0
175.95307917888562
1055.7184750733138
102.63929618768329
4.887585532746823
112.41446725317694
1001.9550342130988
107.52688172043011
9.775171065493646
131.96480938416423
1041.0557184750733
102.63929618768329
4.887585532746823
112.41446725317694
1045.9433040078202
117.30205278592375
9.775171065493646
87.97653958944281
1050.830889540567
112.41446725317694
4.887585532746823
92.86412512218963
1050.830889540567
112.41446725317694
9.775171065493646
78.20136852394917
1036.1681329423266
127.0772238514174
14.662756598240469
92.86412512218963
1060.6060606060605
127.0772238514174
9.775171065493646
87.97653958944281
1016.6177908113392
131.96480938416423
9.775171065493646
53.763440860215056
1006.8426197458456
141.73998044965788
0
87.97653958944281
1045.9433040078202
127.0772238514174
9.775171065493646
68.42619745845552
1060.6060606060605
127.0772238514174
4.887585532746823
63.5386119257087
1021.505376344086
117.30205278592375
0
43.988269794721404
909.0909090909091
327.4682306940371
19.550342130987293
4.887585532746823
669.5992179863148
601.1730205278592
19.550342130987293
4.887585532746823
630.4985337243402
610.9481915933529
14.662756598240469
4.887585532746823
659.8240469208212
596.2854349951124
14.662756598240469
4.887585532746823
630.4985337243402
596.2854349951124
14.662756598240469
4.887585532746823
625.6109481915934
615.8357771260997
19.550342130987293
4.887585532746823
581.622678396872
698.9247311827957
19.550342130987293
4.887585532746823
596.2854349951124
664.711632453568
14.662756598240469
4.887585532746823
635.386119257087
596.2854349951124
19.550342130987293
0
606.060606060606
630.4985337243402
14.662756598240469
4.887585532746823
630.4985337243402
615.8357771260997
19.550342130987293
9.775171065493646
601.1730205278592
674.4868035190616
9.775171065493646
0
640.2737047898338
698.9247311827957
24.437927663734115
9.775171065493646
571.8475073313783
669.5992179863148
19.550342130987293
4.887585532746823
571.8475073313783
698.9247311827957
19.550342130987293
4.887585532746823
557.1847507331378
684.2619745845552
19.550342130987293
0
527.8592375366569
694.0371456500488
19.550342130987293
0
537.6344086021505
659.8240469208212
19.550342130987293
9.775171065493646
493.6461388074291
674.4868035190616
19.550342130987293
9.775171065493646
513.1964809384165
738.0254154447703
19.550342130987293
4.887585532746823
498.533724340176
694.0371456500488
24.437927663734115
4.887585532746823
498.533724340176
728.2502443792766
19.550342130987293
0
522.9716520039101
689.149560117302
19.550342130987293
4.887585532746823
591.3978494623656
698.9247311827957
19.550342130987293
4.887585532746823
459.4330400782014
918.8660801564027
39.100684261974585
4.887585532746823
180.84066471163246
1065.4936461388074
97.75171065493646
4.887585532746823
151.5151515151515
1036.1681329423266
107.52688172043011
14.662756598240469
151.5151515151515
1080.156402737048
102.63929618768329
9.775171065493646
131.96480938416423
1114.3695014662756
102.63929618768329
9.775171065493646
136.85239491691104
1065.4936461388074
102.63929618768329
0
122.18963831867057
1045.9433040078202
117.30205278592375
9.775171065493646
136.85239491691104
1045.9433040078202
107.52688172043011
4.887585532746823
102.63929618768329
1041.0557184750733
127.0772238514174
4.887585532746823
87.97653958944281
1021.505376344086
127.0772238514174
4.887585532746823
92.86412512218963
1129.032258064516
131.96480938416423
14.662756598240469
87.97653958944281
1031.2805474095796
122.18963831867057
4.887585532746823
73.31378299120234
1080.156402737048
141.73998044965788
9.775171065493646
78.20136852394917
1021.505376344086
107.52688172043011
4.887585532746823
87.97653958944281
1060.6060606060605
122.18963831867057
4.887585532746823
63.5386119257087
1089.9315738025416
141.73998044965788
9.775171065493646
68.42619745845552
1036.1681329423266
131.96480938416423
4.887585532746823
68.42619745845552
1070.3812316715544
127.0772238514174
9.775171065493646
48.87585532746823
1031.2805474095796
136.85239491691104
4.887585532746823
43.988269794721404
938.41642228739
288.36754643206257
9.775171065493646
4.887585532746823
738.0254154447703
689.149560117302
14.662756598240469
0
625.6109481915934
610.9481915933529
9.775171065493646
4.887585532746823
654.9364613880742
620.7233626588466
19.550342130987293
9.775171065493646
659.8240469208212
635.386119257087
19.550342130987293
0
586.5102639296188
615.8357771260997
19.550342130987293
9.775171065493646
615.8357771260997
620.7233626588466
19.550342130987293
9.775171065493646
625.6109481915934
674.4868035190616
14.662756598240469
9.775171065493646
586.5102639296188
674.4868035190616
14.662756598240469
0
645.1612903225806
635.386119257087
14.662756598240469
9.775171065493646
650.0488758553274
689.149560117302
24.437927663734115
4.887585532746823
547.4095796676442
708.6999022482894
19.550342130987293
4.887585532746823
576.7350928641251
650.0488758553274
14.662756598240469
0
566.9599217986315
689.149560117302
14.662756598240469
0
562.0723362658847
728.2502443792766
19.550342130987293
9.775171065493646
518.0840664711633
684.2619745845552
29.325513196480937
9.775171065493646
522.9716520039101
703.8123167155425
24.437927663734115
4.887585532746823
488.7585532746823
723.3626588465298
19.550342130987293
9.775171065493646
518.0840664711633
762.4633431085044
24.437927663734115
0
488.7585532746823
738.0254154447703
19.550342130987293
4.887585532746823
547.4095796676442
708.6999022482894
19.550342130987293
0
459.4330400782014
948.1915933528837
48.87585532746823
4.887585532746823
464.3206256109482
977.5171065493646
48.87585532746823
4.887585532746823
474.09579667644186
938.41642228739
43.988269794721404
9.775171065493646
190.6158357771261
1036.1681329423266
87.97653958944281
9.775171065493646
131.96480938416423
1080.156402737048
107.52688172043011
9.775171065493646
131.96480938416423
1114.3695014662756
122.18963831867057
4.887585532746823
117.30205278592375
1041.0557184750733
117.30205278592375
4.887585532746823
122.18963831867057
1089.9315738025416
112.41446725317694
4.887585532746823
107.52688172043011
1065.4936461388074
122.18963831867057
14.662756598240469
87.97653958944281
1070.3812316715544
122.18963831867057
0
92.86412512218963
1070.3812316715544
131.96480938416423
0
87.97653958944281
1065.4936461388074
131.96480938416423
4.887585532746823
87.97653958944281
1036.1681329423266
112.41446725317694
14.662756598240469
83.088954056696
1055.7184750733138
146.6275659824047
9.775171065493646
151.5151515151515
1080.156402737048
117.30205278592375
0
117.30205278592375
1011.7302052785924
166.177908113392
4.887585532746823
68.42619745845552
1212.121212121212
180.84066471163246
14.662756598240469
78.20136852394917
1192.5708699902248
146.6275659824047
9.775171065493646
254.1544477028348
1285.4349951124145
278.5923753665689
19.550342130987293
68.42619745845552
1104.594330400782
298.1427174975562
19.550342130987293
19.550342130987293
1021.505376344086
371.45650048875854
19.550342130987293
0
728.2502443792766
620.7233626588466
78.20136852394917
24.437927663734115
816.2267839687195
518.0840664711633
14.662756598240469
122.18963831867057
1158.357771260997
68.42619745845552
4.887585532746823
131.96480938416423
449.65786901270775
576.7350928641251
78.20136852394917
366.5689149560117
1300.0977517106548
415.44477028347995
14.662756598240469
219.94134897360703
2609.9706744868035
102.63929618768329
97.75171065493646
938.41642228739
454.54545454545456
24.437927663734115
171.0654936461388
63.5386119257087
1823.069403714565
43.988269794721404
53.763440860215056
1124.1446725317694
288.36754643206257
39.100684261974585
14.662756598240469
43.988269794721404
938.41642228739
229.7165200391007
14.662756598240469
4.887585532746823
840.6647116324535
493.6461388074291
14.662756598240469
43.988269794721404
347.0185728250244
581.622678396872
19.550342130987293
53.763440860215056
2233.626588465298
552.297165200391
14.662756598240469
0
1436.950146627566
478.9833822091887
24.437927663734115
322.5806451612903
957.9667644183774
430.10752688172045
19.550342130987293
4.887585532746823
322.5806451612903
1285.4349951124145
532.7468230694037
9.775171065493646
1290.3225806451612
869.9902248289345
53.763440860215056
332.355816226784
1827.9569892473119
83.088954056696
9.775171065493646
566.9599217986315
283.47996089931576
180.84066471163246
9.775171065493646
83.088954056696
1344.0860215053763
97.75171065493646
0
224.82893450635387
1573.802541544477
107.52688172043011
0
332.355816226784
826.0019550342131
151.5151515151515
4.887585532746823
552.297165200391
830.8895405669599
112.41446725317694
0
733.1378299120234
811.3391984359727
19.550342130987293
0
444.7702834799609
1055.7184750733138
58.651026392961874
4.887585532746823
381.2316715542522
1138.8074291300097
68.42619745845552
4.887585532746823
215.05376344086022
1050.830889540567
83.088954056696
9.775171065493646
288.36754643206257
977.5171065493646
127.0772238514174
9.775171065493646
943.3040078201368
327.4682306940371
34.21309872922776
4.887585532746823
244.37927663734115
933.5288367546432
244.37927663734115
14.662756598240469
0
650.0488758553274
493.6461388074291
9.775171065493646
48.87585532746823
1055.7184750733138
122.18963831867057
4.887585532746823
34.21309872922776
1153.4701857282503
117.30205278592375
4.887585532746823
0
811.3391984359727
615.8357771260997
19.550342130987293
68.42619745845552
620.7233626588466
254.1544477028348
19.550342130987293
0
684.2619745845552
434.99511241446726
29.325513196480937
0
322.5806451612903
1124.1446725317694
87.97653958944281
4.887585532746823
518.0840664711633
312.8054740957967
39.100684261974585
0
117.30205278592375
1285.4349951124145
34.21309872922776
4.887585532746823
4.887585532746823
674.4868035190616
772.238514173998
24.437927663734115
4.887585532746823
547.4095796676442
728.2502443792766
19.550342130987293
0
728.2502443792766
811.3391984359727
34.21309872922776
4.887585532746823
723.3626588465298
469.208211143695
29.325513196480937
9.775171065493646
381.2316715542522
938.41642228739
156.40273704789834
0
239.49169110459434
1089.9315738025416
87.97653958944281
9.775171065493646
366.5689149560117
1148.5826001955033
68.42619745845552
0
503.4213098729228
752.6881720430108
24.437927663734115
9.775171065493646
405.66959921798633
1031.2805474095796
73.31378299120234
4.887585532746823
254.1544477028348
1006.8426197458456
73.31378299120234
4.887585532746823
215.05376344086022
1104.594330400782
63.5386119257087
4.887585532746823
87.97653958944281
1011.7302052785924
97.75171065493646
4.887585532746823
117.30205278592375
1148.5826001955033
78.20136852394917
4.887585532746823
83.088954056696
1187.683284457478
83.088954056696
4.887585532746823
278.5923753665689
1036.1681329423266
97.75171065493646
0
376.3440860215054
992.179863147605
122.18963831867057
9.775171065493646
342.1309872922776
1041.0557184750733
87.97653958944281
4.887585532746823
136.85239491691104
992.179863147605
161.29032258064515
14.662756598240469
87.97653958944281
1089.9315738025416
151.5151515151515
9.775171065493646
151.5151515151515
1187.683284457478
117.30205278592375
14.662756598240469
224.82893450635387
982.4046920821114
131.96480938416423
4.887585532746823
249.266862170088
1065.4936461388074
136.85239491691104
14.662756598240469
112.41446725317694
1163.245356793744
171.0654936461388
9.775171065493646
146.6275659824047
1031.2805474095796
151.5151515151515
4.887585532746823
39.100684261974585
1055.7184750733138
293.2551319648094
19.550342130987293
9.775171065493646
757.5757575757576
694.0371456500488
14.662756598240469
9.775171065493646
879.7653958944281
395.89442815249265
24.437927663734115
4.887585532746823
244.37927663734115
1080.156402737048
63.5386119257087
4.887585532746823
434.99511241446726
889.5405669599218
58.651026392961874
4.887585532746823
386.119257086999
1143.6950146627566
73.31378299120234
4.887585532746823
400.7820136852395
855.3274682306941
63.5386119257087
4.887585532746823
430.10752688172045
1119.2570869990225
87.97653958944281
4.887585532746823
434.99511241446726
884.652981427175
58.651026392961874
4.887585532746823
474.09579667644186
987.2922776148582
48.87585532746823
4.887585532746823
327.4682306940371
1085.0439882697947
68.42619745845552
9.775171065493646
298.1427174975562
1143.6950146627566
73.31378299120234
4.887585532746823
391.00684261974584
1055.7184750733138
78.20136852394917
0
366.5689149560117
1080.156402737048
73.31378299120234
9.775171065493646
342.1309872922776
923.7536656891496
73.31378299120234
4.887585532746823
322.5806451612903
957.9667644183774
97.75171065493646
4.887585532746823
361.6813294232649
1070.3812316715544
78.20136852394917
4.887585532746823
312.8054740957967
1085.0439882697947
87.97653958944281
9.775171065493646
283.47996089931576
1124.1446725317694
78.20136852394917
4.887585532746823
205.27859237536657
1045.9433040078202
102.63929618768329
4.887585532746823
215.05376344086022
1173.0205278592375
87.97653958944281
0
156.40273704789834
1270.772238514174
117.30205278592375
14.662756598240469
215.05376344086022
1104.594330400782
92.86412512218963
9.775171065493646
68.42619745845552
1045.9433040078202
97.75171065493646
9.775171065493646
122.18963831867057
1212.121212121212
78.20136852394917
4.887585532746823
205.27859237536657
1197.4584555229717
68.42619745845552
9.775171065493646
234.6041055718475
1036.1681329423266
131.96480938416423
9.775171065493646
200.39100684261976
997.067448680352
97.75171065493646
0
161.29032258064515
1124.1446725317694
102.63929618768329
4.887585532746823
210.16617790811338
1256.1094819159334
102.63929618768329
4.887585532746823
131.96480938416423
1109.4819159335289
102.63929618768329
4.887585532746823
136.85239491691104
1080.156402737048
83.088954056696
9.775171065493646
156.40273704789834
1114.3695014662756
97.75171065493646
9.775171065493646
249.266862170088
982.4046920821114
112.41446725317694
4.887585532746823
107.52688172043011
1109.4819159335289
107.52688172043011
9.775171065493646
131.96480938416423
1021.505376344086
127.0772238514174
4.887585532746823
141.73998044965788
1055.7184750733138
151.5151515151515
9.775171065493646
87.97653958944281
967.741935483871
146.6275659824047
9.775171065493646
48.87585532746823
1016.6177908113392
117.30205278592375
4.887585532746823
43.988269794721404
913.9784946236559
303.030303030303
24.437927663734115
4.887585532746823
835.7771260997067
459.4330400782014
19.550342130987293
0
430.10752688172045
1016.6177908113392
58.651026392961874
0
434.99511241446726
977.5171065493646
53.763440860215056
4.887585532746823
405.66959921798633
1109.4819159335289
63.5386119257087
4.887585532746823
366.5689149560117
1036.1681329423266
63.5386119257087
0
400.7820136852395
1026.392961876833
73.31378299120234
0
391.00684261974584
1163.245356793744
63.5386119257087
4.887585532746823
356.7937438905181
1021.505376344086
68.42619745845552
4.887585532746823
371.45650048875854
982.4046920821114
63.5386119257087
4.887585532746823
87.97653958944281
957.9667644183774
73.31378299120234
4.887585532746823
185.72825024437927
1089.9315738025416
78.20136852394917
9.775171065493646
293.2551319648094
1065.4936461388074
97.75171065493646
9.775171065493646
244.37927663734115
1060.6060606060605
73.31378299120234
4.887585532746823
200.39100684261976
1036.1681329423266
97.75171065493646
9.775171065493646
322.5806451612903
1050.830889540567
92.86412512218963
4.887585532746823
351.90615835777123
1011.7302052785924
107.52688172043011
9.775171065493646
112.41446725317694
1168.1329423264908
83.088954056696
9.775171065493646
259.04203323558164
1036.1681329423266
83.088954056696
4.887585532746823
244.37927663734115
1080.156402737048
97.75171065493646
9.775171065493646
239.49169110459434
1099.7067448680352
97.75171065493646
0
263.92961876832845
1153.4701857282503
83.088954056696
0
327.4682306940371
1041.0557184750733
97.75171065493646
9.775171065493646
180.84066471163246
1036.1681329423266
78.20136852394917
4.887585532746823
229.7165200391007
1133.919843597263
97.75171065493646
9.775171065493646
9.775171065493646
928.6412512218964
200.39100684261976
14.662756598240469
9.775171065493646
850.4398826979473
518.0840664711633
14.662756598240469
0
796.6764418377321
469.208211143695
19.550342130987293
4.887585532746823
434.99511241446726
1104.594330400782
53.763440860215056
9.775171065493646
508.3088954056696
782.0136852394917
19.550342130987293
4.887585532746823
493.6461388074291
791.7888563049853
24.437927663734115
14.662756598240469
449.65786901270775
1006.8426197458456
53.763440860215056
4.887585532746823
425.21994134897363
1055.7184750733138
58.651026392961874
4.887585532746823
464.3206256109482
1099.7067448680352
63.5386119257087
0
415.44477028347995
997.067448680352
63.5386119257087
9.775171065493646
420.33235581622677
1050.830889540567
53.763440860215056
4.887585532746823
420.33235581622677
1050.830889540567
63.5386119257087
4.887585532746823
498.533724340176
874.8778103616813
34.21309872922776
9.775171065493646
381.2316715542522
1031.2805474095796
68.42619745845552
0
430.10752688172045
1045.9433040078202
63.5386119257087
4.887585532746823
386.119257086999
1065.4936461388074
73.31378299120234
4.887585532746823
376.3440860215054
1089.9315738025416
58.651026392961874
4.887585532746823
381.2316715542522
1055.7184750733138
63.5386119257087
4.887585532746823
410.55718475073314
1138.8074291300097
78.20136852394917
4.887585532746823
356.7937438905181
1075.268817204301
68.42619745845552
0
391.00684261974584
1119.2570869990225
73.31378299120234
4.887585532746823
356.7937438905181
1094.8191593352883
78.20136852394917
14.662756598240469
278.5923753665689
1016.6177908113392
73.31378299120234
0
347.0185728250244
1129.032258064516
58.651026392961874
0
459.4330400782014
1177.9081133919844
73.31378299120234
4.887585532746823
366.5689149560117
1221.8963831867059
87.97653958944281
4.887585532746823
259.04203323558164
1080.156402737048
78.20136852394917
0
298.1427174975562
1006.8426197458456
58.651026392961874
0
180.84066471163246
1050.830889540567
117.30205278592375
9.775171065493646
263.92961876832845
1080.156402737048
87.97653958944281
4.887585532746823
254.1544477028348
1089.9315738025416
83.088954056696
4.887585532746823
210.16617790811338
1041.0557184750733
87.97653958944281
4.887585532746823
342.1309872922776
1295.2101661779081
112.41446725317694
9.775171065493646
224.82893450635387
1104.594330400782
92.86412512218963
4.887585532746823
195.50342130987292
1089.9315738025416
92.86412512218963
9.775171065493646
205.27859237536657
1075.268817204301
102.63929618768329
4.887585532746823
224.82893450635387
1119.2570869990225
102.63929618768329
0
175.95307917888562
1070.3812316715544
102.63929618768329
14.662756598240469
180.84066471163246
1050.830889540567
102.63929618768329
9.775171065493646
175.95307917888562
1104.594330400782
107.52688172043011
4.887585532746823
146.6275659824047
1080.156402737048
107.52688172043011
9.775171065493646
239.49169110459434
1080.156402737048
102.63929618768329
9.775171065493646
136.85239491691104
1080.156402737048
107.52688172043011
0
254.1544477028348
1099.7067448680352
107.52688172043011
4.887585532746823
122.18963831867057
1075.268817204301
107.52688172043011
4.887585532746823
107.52688172043011
1060.6060606060605
117.30205278592375
0
87.97653958944281
1060.6060606060605
117.30205278592375
14.662756598240469
122.18963831867057
1070.3812316715544
107.52688172043011
9.775171065493646
112.41446725317694
1075.268817204301
112.41446725317694
9.775171065493646
131.96480938416423
1089.9315738025416
122.18963831867057
4.887585532746823
63.5386119257087
1089.9315738025416
122.18963831867057
4.887585532746823
58.651026392961874
1070.3812316715544
131.96480938416423
14.662756598240469
63.5386119257087
1138.8074291300097
141.73998044965788
0
63.5386119257087
1070.3812316715544
127.0772238514174
14.662756598240469
48.87585532746823
1021.505376344086
131.96480938416423
9.775171065493646
43.988269794721404
928.6412512218964
303.030303030303
14.662756598240469
4.887585532746823
645.1612903225806
620.7233626588466
4.887585532746823
4.887585532746823
689.149560117302
596.2854349951124
19.550342130987293
0
654.9364613880742
635.386119257087
19.550342130987293
0
610.9481915933529
659.8240469208212
19.550342130987293
0
625.6109481915934
640.2737047898338
19.550342130987293
0
620.7233626588466
650.0488758553274
24.437927663734115
0
606.060606060606
659.8240469208212
14.662756598240469
4.887585532746823
591.3978494623656
694.0371456500488
9.775171065493646
4.887585532746823
601.1730205278592
684.2619745845552
24.437927663734115
4.887585532746823
537.6344086021505
684.2619745845552
24.437927663734115
14.662756598240469
566.9599217986315
684.2619745845552
19.550342130987293
4.887585532746823
547.4095796676442
713.5874877810362
24.437927663734115
0
566.9599217986315
708.6999022482894
24.437927663734115
4.887585532746823
547.4095796676442
728.2502443792766
14.662756598240469
4.887585532746823
586.5102639296188
708.6999022482894
14.662756598240469
9.775171065493646
503.4213098729228
728.2502443792766
24.437927663734115
4.887585532746823
503.4213098729228
757.5757575757576
24.437927663734115
4.887585532746823
513.1964809384165
742.9130009775171
24.437927663734115
4.887585532746823
513.1964809384165
767.3509286412512
24.437927663734115
0
464.3206256109482
1006.8426197458456
53.763440860215056
9.775171065493646
474.09579667644186
1011.7302052785924
53.763440860215056
4.887585532746823
469.208211143695
1001.9550342130988
43.988269794721404
4.887585532746823
151.5151515151515
1114.3695014662756
102.63929618768329
4.887585532746823
131.96480938416423
1080.156402737048
117.30205278592375
9.775171065493646
122.18963831867057
1075.268817204301
112.41446725317694
9.775171065493646
107.52688172043011
1075.268817204301
117.30205278592375
0
112.41446725317694
1070.3812316715544
117.30205278592375
4.887585532746823
112.41446725317694
1089.9315738025416
117.30205278592375
4.887585532746823
83.088954056696
1050.830889540567
122.18963831867057
9.775171065493646
87.97653958944281
1099.7067448680352
127.0772238514174
9.775171065493646
83.088954056696
1085.0439882697947
136.85239491691104
9.775171065493646
78.20136852394917
1085.0439882697947
122.18963831867057
4.887585532746823
83.088954056696
1041.0557184750733
131.96480938416423
4.887585532746823
73.31378299120234
1065.4936461388074
127.0772238514174
4.887585532746823
53.763440860215056
1065.4936461388074
136.85239491691104
9.775171065493646
58.651026392961874
1050.830889540567
156.40273704789834
4.887585532746823
63.5386119257087
1055.7184750733138
146.6275659824047
4.887585532746823
43.988269794721404
923.7536656891496
317.6930596285435
24.437927663734115
9.775171065493646
708.6999022482894
650.0488758553274
14.662756598240469
9.775171065493646
620.7233626588466
620.7233626588466
9.775171065493646
4.887585532746823
669.5992179863148
674.4868035190616
14.662756598240469
4.887585532746823
635.386119257087
669.5992179863148
14.662756598240469
9.775171065493646
601.1730205278592
669.5992179863148
19.550342130987293
9.775171065493646
591.3978494623656
664.711632453568
19.550342130987293
0
552.297165200391
752.6881720430108
19.550342130987293
4.887585532746823
586.5102639296188
674.4868035190616
14.662756598240469
9.775171065493646
601.1730205278592
698.9247311827957
24.437927663734115
4.887585532746823
571.8475073313783
708.6999022482894
14.662756598240469
4.887585532746823
547.4095796676442
708.6999022482894
24.437927663734115
4.887585532746823
542.5219941348973
733.1378299120234
24.437927663734115
4.887585532746823
552.297165200391
733.1378299120234
19.550342130987293
4.887585532746823
518.0840664711633
733.1378299120234
24.437927663734115
4.887585532746823
493.6461388074291
762.4633431085044
24.437927663734115
4.887585532746823
498.533724340176
747.8005865102639
19.550342130987293
0
503.4213098729228
762.4633431085044
19.550342130987293
4.887585532746823
459.4330400782014
1021.505376344086
58.651026392961874
0
464.3206256109482
1021.505376344086
48.87585532746823
4.887585532746823
444.7702834799609
972.6295210166178
53.763440860215056
9.775171065493646
464.3206256109482
1006.8426197458456
43.988269794721404
14.662756598240469
127.0772238514174
1060.6060606060605
107.52688172043011
9.775171065493646
136.85239491691104
1055.7184750733138
107.52688172043011
4.887585532746823
117.30205278592375
1080.156402737048
117.30205278592375
4.887585532746823
131.96480938416423
1158.357771260997
117.30205278592375
9.775171065493646
92.86412512218963
1080.156402737048
117.30205278592375
4.887585532746823
78.20136852394917
1085.0439882697947
141.73998044965788
4.887585532746823
78.20136852394917
1075.268817204301
122.18963831867057
4.887585532746823
92.86412512218963
1055.7184750733138
127.0772238514174
4.887585532746823
63.5386119257087
1085.0439882697947
141.73998044965788
4.887585532746823
53.763440860215056
1089.9315738025416
127.0772238514174
0
58.651026392961874
1085.0439882697947
151.5151515151515
14.662756598240469
43.988269794721404
938.41642228739
288.36754643206257
19.550342130987293
0
625.6109481915934
654.9364613880742
24.437927663734115
4.887585532746823
640.2737047898338
625.6109481915934
14.662756598240469
4.887585532746823
674.4868035190616
625.6109481915934
24.437927663734115
0
630.4985337243402
659.8240469208212
14.662756598240469
4.887585532746823
664.711632453568
640.2737047898338
9.775171065493646
0
630.4985337243402
654.9364613880742
19.550342130987293
0
606.060606060606
674.4868035190616
14.662756598240469
4.887585532746823
591.3978494623656
679.3743890518084
24.437927663734115
0
606.060606060606
713.5874877810362
19.550342130987293
0
571.8475073313783
684.2619745845552
19.550342130987293
4.887585532746823
591.3978494623656
713.5874877810362
14.662756598240469
4.887585532746823
566.9599217986315
718.475073313783
19.550342130987293
4.887585532746823
557.1847507331378
772.238514173998
19.550342130987293
9.775171065493646
527.8592375366569
708.6999022482894
19.550342130987293
0
513.1964809384165
757.5757575757576
24.437927663734115
4.887585532746823
503.4213098729228
718.475073313783
19.550342130987293
9.775171065493646
537.6344086021505
723.3626588465298
24.437927663734115
0
508.3088954056696
777.1260997067449
19.550342130987293
4.887585532746823
474.09579667644186
982.4046920821114
48.87585532746823
4.887585532746823
498.533724340176
757.5757575757576
24.437927663734115
0
449.65786901270775
1036.1681329423266
58.651026392961874
9.775171065493646
439.88269794721407
1006.8426197458456
48.87585532746823
0
449.65786901270775
1021.505376344086
53.763440860215056
0
420.33235581622677
1050.830889540567
58.651026392961874
4.887585532746823
430.10752688172045
1006.8426197458456
53.763440860215056
0
425.21994134897363
1026.392961876833
58.651026392961874
0
459.4330400782014
1006.8426197458456
58.651026392961874
0
381.2316715542522
1011.7302052785924
63.5386119257087
9.775171065493646
434.99511241446726
1045.9433040078202
58.651026392961874
4.887585532746823
391.00684261974584
1036.1681329423266
58.651026392961874
4.887585532746823
415.44477028347995
1016.6177908113392
63.5386119257087
0
356.7937438905181
1021.505376344086
73.31378299120234
4.887585532746823
371.45650048875854
1031.2805474095796
58.651026392961874
0
386.119257086999
1089.9315738025416
68.42619745845552
4.887585532746823
347.0185728250244
1045.9433040078202
78.20136852394917
4.887585532746823
386.119257086999
1050.830889540567
73.31378299120234
4.887585532746823
322.5806451612903
1045.9433040078202
68.42619745845552
9.775171065493646
332.355816226784
1070.3812316715544
78.20136852394917
0
307.91788856304987
1045.9433040078202
68.42619745845552
9.775171065493646
307.91788856304987
1041.0557184750733
63.5386119257087
0
303.030303030303
1065.4936461388074
78.20136852394917
0
293.2551319648094
1070.3812316715544
83.088954056696
4.887585532746823
288.36754643206257
1060.6060606060605
68.42619745845552
4.887585532746823
259.04203323558164
1119.2570869990225
87.97653958944281
4.887585532746823
273.7047898338221
1089.9315738025416
78.20136852394917
4.887585532746823
268.81720430107526
1094.8191593352883
78.20136852394917
4.887585532746823
244.37927663734115
1085.0439882697947
87.97653958944281
4.887585532746823
244.37927663734115
1099.7067448680352
87.97653958944281
4.887585532746823
156.40273704789834
1089.9315738025416
107.52688172043011
4.887585532746823
205.27859237536657
1104.594330400782
97.75171065493646
4.887585532746823
210.16617790811338
1143.6950146627566
92.86412512218963
14.662756598240469
190.6158357771261
1089.9315738025416
107.52688172043011
0
185.72825024437927
1065.4936461388074
107.52688172043011
14.662756598240469
171.0654936461388
1080.156402737048
102.63929618768329
4.887585532746823
161.29032258064515
1070.3812316715544
102.63929618768329
9.775171065493646
161.29032258064515
1036.1681329423266
102.63929618768329
4.887585532746823
141.73998044965788
1075.268817204301
122.18963831867057
9.775171065493646
136.85239491691104
1089.9315738025416
112.41446725317694
0
141.73998044965788
1089.9315738025416
117.30205278592375
4.887585532746823
151.5151515151515
1070.3812316715544
112.41446725317694
9.775171065493646
141.73998044965788
1075.268817204301
112.41446725317694
4.887585532746823
97.75171065493646
1075.268817204301
117.30205278592375
0
107.52688172043011
1085.0439882697947
117.30205278592375
4.887585532746823
87.97653958944281
1094.8191593352883
127.0772238514174
9.775171065493646
87.97653958944281
1065.4936461388074
161.29032258064515
9.775171065493646
97.75171065493646
938.41642228739
112.41446725317694
9.775171065493646
43.988269794721404
982.4046920821114
278.5923753665689
9.775171065493646
9.775171065493646
723.3626588465298
601.1730205278592
19.550342130987293
4.887585532746823
962.8543499511242
610.9481915933529
24.437927663734115
9.775171065493646
855.3274682306941
782.0136852394917
19.550342130987293
48.87585532746823
1217.008797653959
166.177908113392
9.775171065493646
39.100684261974585
659.8240469208212
698.9247311827957
63.5386119257087
190.6158357771261
1153.4701857282503
249.266862170088
19.550342130987293
43.988269794721404
1270.772238514174
107.52688172043011
4.887585532746823
122.18963831867057
728.2502443792766
224.82893450635387
14.662756598240469
83.088954056696
953.0791788856305
146.6275659824047
43.988269794721404
4.887585532746823
508.3088954056696
263.92961876832845
29.325513196480937
0
938.41642228739
307.91788856304987
141.73998044965788
136.85239491691104
92.86412512218963
1324.535679374389
102.63929618768329
4.887585532746823
1133.919843597263
860.2150537634409
39.100684261974585
4.887585532746823
654.9364613880742
1358.7487781036168
131.96480938416423
29.325513196480937
1290.3225806451612
1373.4115347018574
48.87585532746823
439.88269794721407
347.0185728250244
552.297165200391
24.437927663734115
141.73998044965788
869.9902248289345
107.52688172043011
34.21309872922776
14.662756598240469
1656.8914956011731
175.95307917888562
9.775171065493646
581.622678396872
1417.3998044965788
127.0772238514174
9.775171065493646
4.887585532746823
87.97653958944281
830.8895405669599
24.437927663734115
332.355816226784
615.8357771260997
1427.1749755620724
34.21309872922776
48.87585532746823
1075.268817204301
161.29032258064515
9.775171065493646
283.47996089931576
1588.4652981427175
78.20136852394917
4.887585532746823
166.177908113392
1363.6363636363637
205.27859237536657
14.662756598240469
195.50342130987292
1368.5239491691104
454.54545454545456
24.437927663734115
122.18963831867057
1129.032258064516
127.0772238514174
210.16617790811338
400.7820136852395
1041.0557184750733
43.988269794721404
4.887585532746823
171.0654936461388
1436.950146627566
87.97653958944281
9.775171065493646
161.29032258064515
1485.8260019550341
63.5386119257087
4.887585532746823
190.6158357771261
1177.9081133919844
122.18963831867057
4.887585532746823
205.27859237536657
542.5219941348973
273.7047898338221
14.662756598240469
83.088954056696
1114.3695014662756
136.85239491691104
4.887585532746823
273.7047898338221
464.3206256109482
254.1544477028348
9.775171065493646
4.887585532746823
650.0488758553274
400.7820136852395
24.437927663734115
9.775171065493646
351.90615835777123
1187.683284457478
43.988269794721404
4.887585532746823
239.49169110459434
703.8123167155425
78.20136852394917
4.887585532746823
107.52688172043011
757.5757575757576
122.18963831867057
14.662756598240469
9.775171065493646
982.4046920821114
210.16617790811338
19.550342130987293
4.887585532746823
806.4516129032259
645.1612903225806
19.550342130987293
4.887585532746823
840.6647116324535
478.9833822091887
24.437927663734115
9.775171065493646
263.92961876832845
1520.039100684262
48.87585532746823
4.887585532746823
371.45650048875854
953.0791788856305
73.31378299120234
9.775171065493646
425.21994134897363
1011.7302052785924
83.088954056696
4.887585532746823
151.5151515151515
1309.8729227761485
136.85239491691104
4.887585532746823
332.355816226784
894.4281524926686
48.87585532746823
9.775171065493646
58.651026392961874
1055.7184750733138
63.5386119257087
0
391.00684261974584
1236.5591397849462
39.100684261974585
9.775171065493646
4.887585532746823
1114.3695014662756
263.92961876832845
14.662756598240469
4.887585532746823
830.8895405669599
635.386119257087
19.550342130987293
14.662756598240469
777.1260997067449
219.94134897360703
19.550342130987293
4.887585532746823
356.7937438905181
1104.594330400782
73.31378299120234
9.775171065493646
151.5151515151515
1075.268817204301
102.63929618768329
4.887585532746823
317.6930596285435
1158.357771260997
112.41446725317694
4.887585532746823
175.95307917888562
1001.9550342130988
156.40273704789834
4.887585532746823
425.21994134897363
777.1260997067449
97.75171065493646
4.887585532746823
347.0185728250244
982.4046920821114
112.41446725317694
9.775171065493646
180.84066471163246
1041.0557184750733
122.18963831867057
9.775171065493646
107.52688172043011
1300.0977517106548
78.20136852394917
0
87.97653958944281
1075.268817204301
180.84066471163246
9.775171065493646
131.96480938416423
1075.268817204301
97.75171065493646
4.887585532746823
112.41446725317694
1045.9433040078202
112.41446725317694
9.775171065493646
195.50342130987292
1124.1446725317694
102.63929618768329
9.775171065493646
156.40273704789834
1177.9081133919844
146.6275659824047
9.775171065493646
112.41446725317694
1173.0205278592375
166.177908113392
4.887585532746823
117.30205278592375
1290.3225806451612
92.86412512218963
9.775171065493646
234.6041055718475
1070.3812316715544
136.85239491691104
14.662756598240469
131.96480938416423
943.3040078201368
122.18963831867057
0
371.45650048875854
689.149560117302
127.0772238514174
4.887585532746823
122.18963831867057
1124.1446725317694
161.29032258064515
9.775171065493646
48.87585532746823
1080.156402737048
175.95307917888562
14.662756598240469
87.97653958944281
1031.2805474095796
136.85239491691104
4.887585532746823
87.97653958944281
1055.7184750733138
156.40273704789834
9.775171065493646
9.775171065493646
997.067448680352
322.5806451612903
19.550342130987293
9.775171065493646
552.297165200391
703.8123167155425
24.437927663734115
4.887585532746823
723.3626588465298
620.7233626588466
9.775171065493646
4.887585532746823
635.386119257087
635.386119257087
19.550342130987293
0
483.8709677419355
918.8660801564027
39.100684261974585
4.887585532746823
351.90615835777123
967.741935483871
63.5386119257087
0
430.10752688172045
1021.505376344086
68.42619745845552
4.887585532746823
478.9833822091887
1119.2570869990225
102.63929618768329
0
361.6813294232649
1021.505376344086
78.20136852394917
4.887585532746823
215.05376344086022
1099.7067448680352
68.42619745845552
9.775171065493646
254.1544477028348
1114.3695014662756
97.75171065493646
4.887585532746823
229.7165200391007
1280.5474095796676
68.42619745845552
4.887585532746823
166.177908113392
997.067448680352
83.088954056696
9.775171065493646
87.97653958944281
1011.7302052785924
87.97653958944281
9.775171065493646
229.7165200391007
1246.3343108504398
78.20136852394917
9.775171065493646
73.31378299120234
1050.830889540567
97.75171065493646
9.775171065493646
210.16617790811338
977.5171065493646
97.75171065493646
4.887585532746823
180.84066471163246
1114.3695014662756
151.5151515151515
4.887585532746823
224.82893450635387
1290.3225806451612
68.42619745845552
4.887585532746823
136.85239491691104
1314.7605083088954
102.63929618768329
4.887585532746823
307.91788856304987
884.652981427175
102.63929618768329
4.887585532746823
224.82893450635387
1099.7067448680352
175.95307917888562
4.887585532746823
175.95307917888562
1114.3695014662756
107.52688172043011
9.775171065493646
48.87585532746823
1251.2218963831867
122.18963831867057
9.775171065493646
107.52688172043011
992.179863147605
117.30205278592375
4.887585532746823
180.84066471163246
1348.9736070381232
117.30205278592375
14.662756598240469
43.988269794721404
1070.3812316715544
293.2551319648094
14.662756598240469
9.775171065493646
694.0371456500488
777.1260997067449
24.437927663734115
4.887585532746823
845.5522971652003
391.00684261974584
24.437927663734115
9.775171065493646
327.4682306940371
943.3040078201368
58.651026392961874
0
366.5689149560117
1045.9433040078202
58.651026392961874
9.775171065493646
483.8709677419355
987.2922776148582
48.87585532746823
4.887585532746823
557.1847507331378
703.8123167155425
29.325513196480937
0
347.0185728250244
1080.156402737048
68.42619745845552
0
205.27859237536657
1021.505376344086
73.31378299120234
4.887585532746823
259.04203323558164
1104.594330400782
58.651026392961874
0
244.37927663734115
1001.9550342130988
68.42619745845552
9.775171065493646
332.355816226784
879.7653958944281
63.5386119257087
4.887585532746823
547.4095796676442
689.149560117302
34.21309872922776
4.887585532746823
171.0654936461388
1109.4819159335289
102.63929618768329
9.775171065493646
166.177908113392
957.9667644183774
78.20136852394917
0
303.030303030303
1114.3695014662756
78.20136852394917
9.775171065493646
239.49169110459434
987.2922776148582
117.30205278592375
4.887585532746823
268.81720430107526
1050.830889540567
117.30205278592375
4.887585532746823
322.5806451612903
1045.9433040078202
73.31378299120234
0
293.2551319648094
1080.156402737048
68.42619745845552
4.887585532746823
141.73998044965788
928.6412512218964
92.86412512218963
4.887585532746823
205.27859237536657
1114.3695014662756
87.97653958944281
4.887585532746823
371.45650048875854
909.0909090909091
53.763440860215056
4.887585532746823
351.90615835777123
962.8543499511242
48.87585532746823
4.887585532746823
215.05376344086022
1187.683284457478
87.97653958944281
4.887585532746823
234.6041055718475
997.067448680352
92.86412512218963
4.887585532746823
161.29032258064515
1168.1329423264908
87.97653958944281
0
161.29032258064515
1016.6177908113392
107.52688172043011
4.887585532746823
151.5151515151515
943.3040078201368
102.63929618768329
4.887585532746823
122.18963831867057
1158.357771260997
136.85239491691104
4.887585532746823
68.42619745845552
1104.594330400782
107.52688172043011
4.887585532746823
224.82893450635387
1031.2805474095796
102.63929618768329
4.887585532746823
210.16617790811338
1055.7184750733138
87.97653958944281
4.887585532746823
117.30205278592375
1070.3812316715544
136.85239491691104
9.775171065493646
24.437927663734115
860.2150537634409
205.27859237536657
14.662756598240469
9.775171065493646
723.3626588465298
571.8475073313783
19.550342130987293
4.887585532746823
703.8123167155425
527.8592375366569
9.775171065493646
0
630.4985337243402
498.533724340176
4.887585532746823
0
718.475073313783
733.1378299120234
19.550342130987293
0
767.3509286412512
684.2619745845552
19.550342130987293
9.775171065493646
786.9012707722385
522.9716520039101
9.775171065493646
4.887585532746823
762.4633431085044
703.8123167155425
19.550342130987293
4.887585532746823
752.6881720430108
591.3978494623656
19.550342130987293
9.775171065493646
654.9364613880742
650.0488758553274
14.662756598240469
0
718.475073313783
596.2854349951124
9.775171065493646
0
674.4868035190616
747.8005865102639
19.550342130987293
4.887585532746823
596.2854349951124
635.386119257087
14.662756598240469
0
786.9012707722385
591.3978494623656
14.662756598240469
4.887585532746823
630.4985337243402
645.1612903225806
14.662756598240469
4.887585532746823
625.6109481915934
620.7233626588466
14.662756598240469
0
635.386119257087
757.5757575757576
24.437927663734115
4.887585532746823
532.7468230694037
581.622678396872
19.550342130987293
0
713.5874877810362
742.9130009775171
24.437927663734115
0
635.386119257087
742.9130009775171
24.437927663734115
9.775171065493646
610.9481915933529
718.475073313783
19.550342130987293
4.887585532746823
478.9833822091887
899.3157380254155
39.100684261974585
9.775171065493646
263.92961876832845
1070.3812316715544
83.088954056696
4.887585532746823
210.16617790811338
1129.032258064516
83.088954056696
4.887585532746823
215.05376344086022
1089.9315738025416
102.63929618768329
4.887585532746823
224.82893450635387
1104.594330400782
107.52688172043011
9.775171065493646
210.16617790811338
1075.268817204301
107.52688172043011
4.887585532746823
210.16617790811338
1036.1681329423266
102.63929618768329
0
131.96480938416423
1070.3812316715544
102.63929618768329
9.775171065493646
190.6158357771261
1089.9315738025416
102.63929618768329
9.775171065493646
200.39100684261976
1124.1446725317694
102.63929618768329
9.775171065493646
156.40273704789834
1094.8191593352883
102.63929618768329
9.775171065493646
180.84066471163246
1099.7067448680352
112.41446725317694
4.887585532746823
151.5151515151515
1094.8191593352883
107.52688172043011
4.887585532746823
146.6275659824047
1075.268817204301
112.41446725317694
9.775171065493646
127.0772238514174
1197.4584555229717
127.0772238514174
4.887585532746823
58.651026392961874
1001.9550342130988
127.0772238514174
4.887585532746823
146.6275659824047
1026.392961876833
97.75171065493646
4.887585532746823
107.52688172043011
1080.156402737048
107.52688172043011
4.887585532746823
102.63929618768329
1080.156402737048
122.18963831867057
9.775171065493646
107.52688172043011
1070.3812316715544
117.30205278592375
9.775171065493646
107.52688172043011
1177.9081133919844
136.85239491691104
9.775171065493646
83.088954056696
1104.594330400782
127.0772238514174
4.887585532746823
78.20136852394917
1133.919843597263
112.41446725317694
9.775171065493646
58.651026392961874
1099.7067448680352
141.73998044965788
9.775171065493646
68.42619745845552
1089.9315738025416
127.0772238514174
9.775171065493646
63.5386119257087
1050.830889540567
146.6275659824047
4.887585532746823
48.87585532746823
1104.594330400782
131.96480938416423
9.775171065493646
58.651026392961874
1080.156402737048
156.40273704789834
4.887585532746823
39.100684261974585
943.3040078201368
322.5806451612903
19.550342130987293
0
698.9247311827957
654.9364613880742
14.662756598240469
9.775171065493646
635.386119257087
650.0488758553274
19.550342130987293
4.887585532746823
635.386119257087
650.0488758553274
14.662756598240469
0
606.060606060606
698.9247311827957
19.550342130987293
4.887585532746823
615.8357771260997
689.149560117302
19.550342130987293
0
581.622678396872
664.711632453568
24.437927663734115
4.887585532746823
654.9364613880742
698.9247311827957
14.662756598240469
0
586.5102639296188
718.475073313783
14.662756598240469
9.775171065493646
596.2854349951124
698.9247311827957
14.662756598240469
4.887585532746823
571.8475073313783
718.475073313783
19.550342130987293
0
557.1847507331378
728.2502443792766
24.437927663734115
0
542.5219941348973
742.9130009775171
24.437927663734115
4.887585532746823
522.9716520039101
747.8005865102639
24.437927663734115
4.887585532746823
498.533724340176
738.0254154447703
24.437927663734115
4.887585532746823
532.7468230694037
757.5757575757576
19.550342130987293
0
493.6461388074291
777.1260997067449
24.437927663734115
4.887585532746823
478.9833822091887
962.8543499511242
43.988269794721404
0
195.50342130987292
1055.7184750733138
107.52688172043011
4.887585532746823
161.29032258064515
1080.156402737048
107.52688172043011
9.775171065493646
156.40273704789834
1085.0439882697947
107.52688172043011
9.775171065493646
141.73998044965788
1075.268817204301
107.52688172043011
4.887585532746823
141.73998044965788
1055.7184750733138
112.41446725317694
4.887585532746823
136.85239491691104
1089.9315738025416
107.52688172043011
4.887585532746823
127.0772238514174
1080.156402737048
117.30205278592375
4.887585532746823
122.18963831867057
1075.268817204301
107.52688172043011
4.887585532746823
122.18963831867057
1075.268817204301
122.18963831867057
4.887585532746823
102.63929618768329
1075.268817204301
161.29032258064515
9.775171065493646
73.31378299120234
1031.2805474095796
117.30205278592375
9.775171065493646
68.42619745845552
1065.4936461388074
127.0772238514174
4.887585532746823
127.0772238514174
1114.3695014662756
131.96480938416423
9.775171065493646
92.86412512218963
1085.0439882697947
127.0772238514174
14.662756598240469
73.31378299120234
1089.9315738025416
131.96480938416423
9.775171065493646
73.31378299120234
