	HandOpen
0	581.622678396872
1	615.8357771260997
2	503.4213098729228
3	317.6930596285435
4	131.96480938416423
5	58.651026392961874
6	29.325513196480937
7	4.887585532746823
8	4.887585532746823
9	4.887585532746823
10	4.887585532746823
11	73.31378299120234
12	288.36754643206257
13	532.7468230694037
14	640.2737047898338
15	630.4985337243402
16	474.09579667644186
17	254.1544477028348
18	102.63929618768329
19	39.100684261974585
20	19.550342130987293
21	4.887585532746823
22	9.775171065493646
23	0
24	4.887585532746823
25	503.4213098729228
26	234.6041055718475
27	14.662756598240469
28	4.887585532746823
29	347.0185728250244
30	552.297165200391
31	29.325513196480937
32	4.887585532746823
33	146.6275659824047
34	645.1612903225806
35	53.763440860215056
36	0
37	127.0772238514174
38	610.9481915933529
39	48.87585532746823
40	0
41	122.18963831867057
42	620.7233626588466
43	53.763440860215056
44	4.887585532746823
45	117.30205278592375
46	645.1612903225806
47	58.651026392961874
48	0
49	122.18963831867057
50	635.386119257087
51	58.651026392961874
52	4.887585532746823
53	122.18963831867057
54	615.8357771260997
55	53.763440860215056
56	9.775171065493646
57	122.18963831867057
58	650.0488758553274
59	53.763440860215056
60	4.887585532746823
61	112.41446725317694
62	635.386119257087
63	58.651026392961874
64	4.887585532746823
65	131.96480938416423
66	635.386119257087
67	53.763440860215056
68	4.887585532746823
69	117.30205278592375
70	640.2737047898338
71	53.763440860215056
72	4.887585532746823
73	107.52688172043011
74	635.386119257087
75	58.651026392961874
76	9.775171065493646
77	92.86412512218963
78	645.1612903225806
79	68.42619745845552
80	4.887585532746823
81	112.41446725317694
82	640.2737047898338
83	63.5386119257087
84	9.775171065493646
85	117.30205278592375
86	640.2737047898338
87	68.42619745845552
88	4.887585532746823
89	92.86412512218963
90	635.386119257087
91	58.651026392961874
92	0
93	122.18963831867057
94	659.8240469208212
95	58.651026392961874
96	4.887585532746823
97	117.30205278592375
98	659.8240469208212
99	58.651026392961874
100	4.887585532746823
101	117.30205278592375
102	669.5992179863148
103	63.5386119257087
104	4.887585532746823
105	87.97653958944281
106	630.4985337243402
107	58.651026392961874
108	4.887585532746823
109	102.63929618768329
110	650.0488758553274
111	58.651026392961874
112	4.887585532746823
113	102.63929618768329
114	650.0488758553274
115	58.651026392961874
116	4.887585532746823
117	92.86412512218963
118	659.8240469208212
119	73.31378299120234
120	4.887585532746823
121	87.97653958944281
122	630.4985337243402
123	63.5386119257087
124	9.775171065493646
125	97.75171065493646
126	654.9364613880742
127	68.42619745845552
128	4.887585532746823
129	92.86412512218963
130	689.149560117302
131	63.5386119257087
132	4.887585532746823
133	83.088954056696
134	659.8240469208212
135	68.42619745845552
136	9.775171065493646
137	87.97653958944281
138	650.0488758553274
139	73.31378299120234
140	4.887585532746823
141	87.97653958944281
142	654.9364613880742
143	68.42619745845552
144	4.887585532746823
145	92.86412512218963
146	654.9364613880742
147	68.42619745845552
148	4.887585532746823
149	92.86412512218963
150	650.0488758553274
151	63.5386119257087
152	4.887585532746823
153	92.86412512218963
154	669.5992179863148
155	78.20136852394917
156	4.887585532746823
157	97.75171065493646
158	659.8240469208212
159	68.42619745845552
160	4.887585532746823
161	73.31378299120234
162	640.2737047898338
163	68.42619745845552
164	4.887585532746823
165	83.088954056696
166	650.0488758553274
167	68.42619745845552
168	9.775171065493646
169	87.97653958944281
170	669.5992179863148
171	68.42619745845552
172	0
173	83.088954056696
174	654.9364613880742
175	68.42619745845552
176	9.775171065493646
177	83.088954056696
178	650.0488758553274
179	78.20136852394917
180	4.887585532746823
181	73.31378299120234
182	625.6109481915934
183	68.42619745845552
184	9.775171065493646
185	87.97653958944281
186	615.8357771260997
187	58.651026392961874
188	9.775171065493646
189	83.088954056696
190	664.711632453568
191	68.42619745845552
192	9.775171065493646
193	78.20136852394917
194	659.8240469208212
195	73.31378299120234
196	9.775171065493646
197	87.97653958944281
198	654.9364613880742
199	73.31378299120234
200	9.775171065493646
201	92.86412512218963
202	669.5992179863148
203	73.31378299120234
204	4.887585532746823
205	68.42619745845552
206	664.711632453568
207	78.20136852394917
208	4.887585532746823
209	73.31378299120234
210	650.0488758553274
211	87.97653958944281
212	9.775171065493646
213	73.31378299120234
214	659.8240469208212
215	78.20136852394917
216	9.775171065493646
217	58.651026392961874
218	684.2619745845552
219	78.20136852394917
220	4.887585532746823
221	78.20136852394917
222	645.1612903225806
223	78.20136852394917
224	4.887585532746823
225	63.5386119257087
226	654.9364613880742
227	78.20136852394917
228	4.887585532746823
229	73.31378299120234
230	669.5992179863148
231	83.088954056696
232	0
233	68.42619745845552
234	645.1612903225806
235	78.20136852394917
236	4.887585532746823
237	53.763440860215056
238	645.1612903225806
239	87.97653958944281
240	9.775171065493646
241	58.651026392961874
242	659.8240469208212
243	73.31378299120234
244	0
245	58.651026392961874
246	674.4868035190616
247	73.31378299120234
248	4.887585532746823
249	63.5386119257087
250	654.9364613880742
251	73.31378299120234
252	9.775171065493646
253	58.651026392961874
254	669.5992179863148
255	73.31378299120234
256	4.887585532746823
257	48.87585532746823
258	650.0488758553274
259	78.20136852394917
260	4.887585532746823
261	43.988269794721404
262	596.2854349951124
263	166.177908113392
264	14.662756598240469
265	4.887585532746823
266	439.88269794721407
267	483.8709677419355
268	39.100684261974585
269	14.662756598240469
270	39.100684261974585
271	576.7350928641251
272	156.40273704789834
273	4.887585532746823
274	9.775171065493646
275	415.44477028347995
276	483.8709677419355
277	34.21309872922776
278	4.887585532746823
279	39.100684261974585
280	557.1847507331378
281	171.0654936461388
282	4.887585532746823
283	9.775171065493646
284	420.33235581622677
285	488.7585532746823
286	14.662756598240469
287	14.662756598240469
288	219.94134897360703
289	615.8357771260997
290	39.100684261974585
291	9.775171065493646
292	39.100684261974585
293	571.8475073313783
294	166.177908113392
295	4.887585532746823
296	9.775171065493646
297	430.10752688172045
298	537.6344086021505
299	24.437927663734115
300	4.887585532746823
301	200.39100684261976
302	615.8357771260997
303	34.21309872922776
304	9.775171065493646
305	39.100684261974585
306	557.1847507331378
307	166.177908113392
308	9.775171065493646
309	4.887585532746823
310	381.2316715542522
311	508.3088954056696
312	19.550342130987293
313	4.887585532746823
314	185.72825024437927
315	610.9481915933529
316	39.100684261974585
317	9.775171065493646
318	24.437927663734115
319	552.297165200391
320	161.29032258064515
321	4.887585532746823
322	9.775171065493646
323	400.7820136852395
324	518.0840664711633
325	19.550342130987293
326	9.775171065493646
327	200.39100684261976
328	620.7233626588466
329	34.21309872922776
330	4.887585532746823
331	39.100684261974585
332	547.4095796676442
333	175.95307917888562
334	14.662756598240469
335	9.775171065493646
336	386.119257086999
337	508.3088954056696
338	19.550342130987293
339	4.887585532746823
340	185.72825024437927
341	615.8357771260997
342	39.100684261974585
343	4.887585532746823
344	39.100684261974585
345	581.622678396872
346	195.50342130987292
347	19.550342130987293
348	4.887585532746823
349	386.119257086999
350	513.1964809384165
351	24.437927663734115
352	4.887585532746823
353	200.39100684261976
354	635.386119257087
355	34.21309872922776
356	0
357	29.325513196480937
358	562.0723362658847
359	180.84066471163246
360	4.887585532746823
361	9.775171065493646
362	386.119257086999
363	532.7468230694037
364	19.550342130987293
365	0
366	190.6158357771261
367	650.0488758553274
368	43.988269794721404
369	4.887585532746823
370	14.662756598240469
371	542.5219941348973
372	180.84066471163246
373	9.775171065493646
374	0
375	386.119257086999
376	532.7468230694037
377	19.550342130987293
378	0
379	175.95307917888562
380	620.7233626588466
381	43.988269794721404
382	0
383	19.550342130987293
384	571.8475073313783
385	195.50342130987292
386	14.662756598240469
387	4.887585532746823
388	381.2316715542522
389	537.6344086021505
390	19.550342130987293
391	0
392	166.177908113392
393	625.6109481915934
394	39.100684261974585
395	4.887585532746823
396	9.775171065493646
397	552.297165200391
398	185.72825024437927
399	9.775171065493646
400	4.887585532746823
401	381.2316715542522
402	552.297165200391
403	19.550342130987293
404	9.775171065493646
405	156.40273704789834
406	640.2737047898338
407	48.87585532746823
408	0
409	175.95307917888562
410	640.2737047898338
411	48.87585532746823
412	4.887585532746823
413	185.72825024437927
414	625.6109481915934
415	43.988269794721404
416	4.887585532746823
417	29.325513196480937
418	552.297165200391
419	205.27859237536657
420	9.775171065493646
421	4.887585532746823
422	342.1309872922776
423	562.0723362658847
424	19.550342130987293
425	4.887585532746823
426	190.6158357771261
427	659.8240469208212
428	53.763440860215056
429	4.887585532746823
430	151.5151515151515
431	630.4985337243402
432	53.763440860215056
433	4.887585532746823
434	151.5151515151515
435	630.4985337243402
436	43.988269794721404
437	4.887585532746823
438	19.550342130987293
439	557.1847507331378
440	200.39100684261976
441	9.775171065493646
442	9.775171065493646
443	361.6813294232649
444	522.9716520039101
445	19.550342130987293
446	4.887585532746823
447	146.6275659824047
448	620.7233626588466
449	34.21309872922776
450	4.887585532746823
451	14.662756598240469
452	542.5219941348973
453	195.50342130987292
454	4.887585532746823
455	0
456	356.7937438905181
457	537.6344086021505
458	24.437927663734115
459	9.775171065493646
460	146.6275659824047
461	625.6109481915934
462	53.763440860215056
463	4.887585532746823
464	136.85239491691104
465	640.2737047898338
466	53.763440860215056
467	0
468	151.5151515151515
469	654.9364613880742
470	43.988269794721404
471	9.775171065493646
472	4.887585532746823
473	522.9716520039101
474	219.94134897360703
475	4.887585532746823
476	9.775171065493646
477	332.355816226784
478	571.8475073313783
479	29.325513196480937
480	0
481	166.177908113392
482	654.9364613880742
483	53.763440860215056
484	4.887585532746823
485	136.85239491691104
486	650.0488758553274
487	48.87585532746823
488	4.887585532746823
489	175.95307917888562
490	640.2737047898338
491	43.988269794721404
492	9.775171065493646
493	0
494	518.0840664711633
495	219.94134897360703
496	14.662756598240469
497	0
498	347.0185728250244
499	562.0723362658847
500	24.437927663734115
501	4.887585532746823
502	131.96480938416423
503	625.6109481915934
504	48.87585532746823
505	9.775171065493646
506	131.96480938416423
507	620.7233626588466
508	53.763440860215056
509	9.775171065493646
510	127.0772238514174
511	615.8357771260997
512	43.988269794721404
513	4.887585532746823
514	0
515	493.6461388074291
516	224.82893450635387
517	14.662756598240469
518	0
519	327.4682306940371
520	562.0723362658847
521	29.325513196480937
522	9.775171065493646
523	136.85239491691104
524	650.0488758553274
525	43.988269794721404
526	4.887585532746823
527	4.887585532746823
528	518.0840664711633
529	249.266862170088
530	9.775171065493646
531	0
532	312.8054740957967
533	571.8475073313783
534	24.437927663734115
535	4.887585532746823
536	122.18963831867057
537	654.9364613880742
538	43.988269794721404
539	9.775171065493646
540	9.775171065493646
541	498.533724340176
542	249.266862170088
543	14.662756598240469
544	4.887585532746823
545	317.6930596285435
546	566.9599217986315
547	24.437927663734115
548	0
549	122.18963831867057
550	674.4868035190616
551	53.763440860215056
552	4.887585532746823
553	117.30205278592375
554	659.8240469208212
555	58.651026392961874
556	9.775171065493646
557	107.52688172043011
558	650.0488758553274
559	58.651026392961874
560	0
561	127.0772238514174
562	659.8240469208212
563	53.763440860215056
564	0
565	117.30205278592375
566	669.5992179863148
567	58.651026392961874
568	4.887585532746823
569	92.86412512218963
570	640.2737047898338
571	58.651026392961874
572	9.775171065493646
573	127.0772238514174
574	650.0488758553274
575	53.763440860215056
576	0
577	87.97653958944281
578	664.711632453568
579	58.651026392961874
580	9.775171065493646
581	83.088954056696
582	630.4985337243402
583	58.651026392961874
584	4.887585532746823
585	117.30205278592375
586	650.0488758553274
587	53.763440860215056
588	0
589	107.52688172043011
590	645.1612903225806
591	58.651026392961874
592	9.775171065493646
593	97.75171065493646
594	635.386119257087
595	63.5386119257087
596	9.775171065493646
597	83.088954056696
598	630.4985337243402
599	63.5386119257087
600	9.775171065493646
601	92.86412512218963
602	635.386119257087
603	58.651026392961874
604	4.887585532746823
605	92.86412512218963
606	650.0488758553274
607	58.651026392961874
608	4.887585532746823
609	87.97653958944281
610	659.8240469208212
611	63.5386119257087
612	9.775171065493646
613	92.86412512218963
614	640.2737047898338
615	63.5386119257087
616	4.887585532746823
617	83.088954056696
618	640.2737047898338
619	63.5386119257087
620	9.775171065493646
621	87.97653958944281
622	654.9364613880742
623	58.651026392961874
624	0
625	78.20136852394917
626	669.5992179863148
627	68.42619745845552
628	9.775171065493646
629	78.20136852394917
630	630.4985337243402
631	63.5386119257087
632	4.887585532746823
633	73.31378299120234
634	645.1612903225806
635	68.42619745845552
636	4.887585532746823
637	83.088954056696
638	635.386119257087
639	68.42619745845552
640	4.887585532746823
641	83.088954056696
642	664.711632453568
643	68.42619745845552
644	0
645	83.088954056696
646	679.3743890518084
647	73.31378299120234
648	4.887585532746823
649	78.20136852394917
650	664.711632453568
651	68.42619745845552
652	0
653	73.31378299120234
654	650.0488758553274
655	68.42619745845552
656	4.887585532746823
657	68.42619745845552
658	640.2737047898338
659	63.5386119257087
660	14.662756598240469
661	68.42619745845552
662	650.0488758553274
663	68.42619745845552
664	9.775171065493646
665	63.5386119257087
666	630.4985337243402
667	68.42619745845552
668	4.887585532746823
669	73.31378299120234
670	645.1612903225806
671	68.42619745845552
672	9.775171065493646
673	87.97653958944281
674	664.711632453568
675	63.5386119257087
676	9.775171065493646
677	68.42619745845552
678	620.7233626588466
679	68.42619745845552
680	4.887585532746823
681	63.5386119257087
682	625.6109481915934
683	63.5386119257087
684	14.662756598240469
685	58.651026392961874
686	620.7233626588466
687	63.5386119257087
688	4.887585532746823
689	53.763440860215056
690	650.0488758553274
691	73.31378299120234
692	4.887585532746823
693	63.5386119257087
694	640.2737047898338
695	83.088954056696
696	9.775171065493646
697	19.550342130987293
698	488.7585532746823
699	156.40273704789834
700	4.887585532746823
701	9.775171065493646
702	303.030303030303
703	400.7820136852395
704	34.21309872922776
705	9.775171065493646
706	14.662756598240469
707	483.8709677419355
708	298.1427174975562
709	19.550342130987293
710	0
711	562.0723362658847
712	713.5874877810362
713	29.325513196480937
714	4.887585532746823
715	68.42619745845552
716	317.6930596285435
717	92.86412512218963
718	9.775171065493646
719	39.100684261974585
720	439.88269794721407
721	210.16617790811338
722	24.437927663734115
723	0
724	439.88269794721407
725	674.4868035190616
726	73.31378299120234
727	0
728	48.87585532746823
729	1192.5708699902248
730	166.177908113392
731	9.775171065493646
732	131.96480938416423
733	361.6813294232649
734	141.73998044965788
735	9.775171065493646
736	63.5386119257087
737	865.1026392961877
738	156.40273704789834
739	9.775171065493646
740	4.887585532746823
741	215.05376344086022
742	327.4682306940371
743	19.550342130987293
744	0
745	34.21309872922776
746	532.7468230694037
747	298.1427174975562
748	24.437927663734115
749	9.775171065493646
750	283.47996089931576
751	596.2854349951124
752	24.437927663734115
753	9.775171065493646
754	562.0723362658847
755	376.3440860215054
756	19.550342130987293
757	9.775171065493646
758	303.030303030303
759	537.6344086021505
760	19.550342130987293
761	4.887585532746823
762	9.775171065493646
763	278.5923753665689
764	542.5219941348973
765	14.662756598240469
766	4.887585532746823
767	263.92961876832845
768	351.90615835777123
769	19.550342130987293
770	0
771	175.95307917888562
772	962.8543499511242
773	73.31378299120234
774	4.887585532746823
775	175.95307917888562
776	694.0371456500488
777	97.75171065493646
778	9.775171065493646
779	19.550342130987293
780	464.3206256109482
781	420.33235581622677
782	19.550342130987293
783	0
784	210.16617790811338
785	508.3088954056696
786	19.550342130987293
787	0
788	122.18963831867057
789	664.711632453568
790	87.97653958944281
791	4.887585532746823
792	4.887585532746823
793	620.7233626588466
794	102.63929618768329
795	4.887585532746823
796	14.662756598240469
797	381.2316715542522
798	469.208211143695
799	39.100684261974585
800	4.887585532746823
801	63.5386119257087
802	562.0723362658847
803	87.97653958944281
804	9.775171065493646
805	4.887585532746823
806	454.54545454545456
807	488.7585532746823
808	14.662756598240469
809	14.662756598240469
810	342.1309872922776
811	351.90615835777123
812	29.325513196480937
813	9.775171065493646
814	0
815	493.6461388074291
816	97.75171065493646
817	9.775171065493646
818	4.887585532746823
819	478.9833822091887
820	498.533724340176
821	14.662756598240469
822	0
823	210.16617790811338
824	542.5219941348973
825	34.21309872922776
826	4.887585532746823
827	4.887585532746823
828	386.119257086999
829	503.4213098729228
830	14.662756598240469
831	4.887585532746823
832	298.1427174975562
833	395.89442815249265
834	43.988269794721404
835	14.662756598240469
836	151.5151515151515
837	650.0488758553274
838	73.31378299120234
839	4.887585532746823
840	127.0772238514174
841	464.3206256109482
842	136.85239491691104
843	9.775171065493646
844	0
845	259.04203323558164
846	405.66959921798633
847	48.87585532746823
848	9.775171065493646
849	146.6275659824047
850	513.1964809384165
851	34.21309872922776
852	4.887585532746823
853	9.775171065493646
854	650.0488758553274
855	151.5151515151515
856	4.887585532746823
857	4.887585532746823
858	454.54545454545456
859	503.4213098729228
860	19.550342130987293
861	4.887585532746823
862	127.0772238514174
863	659.8240469208212
864	53.763440860215056
865	9.775171065493646
866	175.95307917888562
867	571.8475073313783
868	34.21309872922776
869	4.887585532746823
870	9.775171065493646
871	371.45650048875854
872	483.8709677419355
873	29.325513196480937
874	4.887585532746823
875	185.72825024437927
876	503.4213098729228
877	58.651026392961874
878	4.887585532746823
879	161.29032258064515
880	459.4330400782014
881	175.95307917888562
882	4.887585532746823
883	14.662756598240469
884	483.8709677419355
885	381.2316715542522
886	24.437927663734115
887	4.887585532746823
888	107.52688172043011
889	518.0840664711633
890	39.100684261974585
891	4.887585532746823
892	4.887585532746823
893	434.99511241446726
894	283.47996089931576
895	19.550342130987293
896	0
897	73.31378299120234
898	562.0723362658847
899	43.988269794721404
900	9.775171065493646
901	19.550342130987293
902	464.3206256109482
903	229.7165200391007
904	14.662756598240469
905	0
906	190.6158357771261
907	488.7585532746823
908	68.42619745845552
909	14.662756598240469
910	87.97653958944281
911	610.9481915933529
912	24.437927663734115
913	4.887585532746823
914	48.87585532746823
915	527.8592375366569
916	63.5386119257087
917	4.887585532746823
918	14.662756598240469
919	469.208211143695
920	122.18963831867057
921	9.775171065493646
922	0
923	68.42619745845552
924	410.55718475073314
925	190.6158357771261
926	9.775171065493646
927	9.775171065493646
928	317.6930596285435
929	547.4095796676442
930	9.775171065493646
931	4.887585532746823
932	244.37927663734115
933	464.3206256109482
934	34.21309872922776
935	4.887585532746823
936	9.775171065493646
937	439.88269794721407
938	337.2434017595308
939	19.550342130987293
940	4.887585532746823
941	171.0654936461388
942	581.622678396872
943	43.988269794721404
944	4.887585532746823
945	87.97653958944281
946	591.3978494623656
947	131.96480938416423
948	4.887585532746823
949	24.437927663734115
950	508.3088954056696
951	131.96480938416423
952	19.550342130987293
953	0
954	180.84066471163246
955	337.2434017595308
956	29.325513196480937
957	9.775171065493646
958	9.775171065493646
959	483.8709677419355
960	337.2434017595308
961	19.550342130987293
962	4.887585532746823
963	87.97653958944281
964	513.1964809384165
965	48.87585532746823
966	4.887585532746823
967	83.088954056696
968	508.3088954056696
969	68.42619745845552
970	4.887585532746823
971	122.18963831867057
972	503.4213098729228
973	34.21309872922776
974	0
975	9.775171065493646
976	557.1847507331378
977	224.82893450635387
978	14.662756598240469
979	0
980	347.0185728250244
981	474.09579667644186
982	53.763440860215056
983	4.887585532746823
984	87.97653958944281
985	508.3088954056696
986	29.325513196480937
987	9.775171065493646
988	0
989	347.0185728250244
990	278.5923753665689
991	19.550342130987293
992	9.775171065493646
993	78.20136852394917
994	532.7468230694037
995	48.87585532746823
996	4.887585532746823
997	92.86412512218963
998	606.060606060606
999	63.5386119257087
1000	4.887585532746823
1001	78.20136852394917
1002	620.7233626588466
1003	48.87585532746823
1004	9.775171065493646
1005	92.86412512218963
1006	552.297165200391
1007	68.42619745845552
1008	4.887585532746823
1009	97.75171065493646
1010	596.2854349951124
1011	48.87585532746823
1012	4.887585532746823
1013	83.088954056696
1014	625.6109481915934
1015	48.87585532746823
1016	0
1017	127.0772238514174
1018	542.5219941348973
1019	48.87585532746823
1020	4.887585532746823
1021	48.87585532746823
1022	459.4330400782014
1023	97.75171065493646
1024	4.887585532746823
1025	4.887585532746823
1026	420.33235581622677
1027	381.2316715542522
1028	29.325513196480937
1029	0
1030	53.763440860215056
1031	552.297165200391
1032	43.988269794721404
1033	4.887585532746823
1034	4.887585532746823
1035	439.88269794721407
1036	366.5689149560117
1037	29.325513196480937
1038	9.775171065493646
1039	131.96480938416423
1040	508.3088954056696
1041	39.100684261974585
1042	4.887585532746823
1043	9.775171065493646
1044	342.1309872922776
1045	322.5806451612903
1046	29.325513196480937
1047	0
1048	87.97653958944281
1049	596.2854349951124
1050	58.651026392961874
1051	0
1052	78.20136852394917
1053	669.5992179863148
1054	48.87585532746823
1055	0
1056	29.325513196480937
1057	513.1964809384165
1058	102.63929618768329
1059	4.887585532746823
1060	131.96480938416423
1061	591.3978494623656
1062	83.088954056696
1063	0
1064	0
1065	498.533724340176
1066	278.5923753665689
1067	19.550342130987293
1068	4.887585532746823
1069	307.91788856304987
1070	532.7468230694037
1071	29.325513196480937
1072	9.775171065493646
1073	19.550342130987293
1074	493.6461388074291
1075	136.85239491691104
1076	9.775171065493646
1077	4.887585532746823
1078	371.45650048875854
1079	371.45650048875854
1080	29.325513196480937
1081	4.887585532746823
1082	73.31378299120234
1083	459.4330400782014
1084	195.50342130987292
1085	9.775171065493646
1086	4.887585532746823
1087	356.7937438905181
1088	395.89442815249265
1089	39.100684261974585
1090	0
1091	24.437927663734115
1092	478.9833822091887
1093	347.0185728250244
1094	19.550342130987293
1095	4.887585532746823
1096	200.39100684261976
1097	488.7585532746823
1098	34.21309872922776
1099	4.887585532746823
1100	48.87585532746823
1101	586.5102639296188
1102	68.42619745845552
1103	4.887585532746823
1104	29.325513196480937
1105	557.1847507331378
1106	131.96480938416423
1107	9.775171065493646
1108	0
1109	366.5689149560117
1110	317.6930596285435
1111	39.100684261974585
1112	4.887585532746823
1113	92.86412512218963
1114	522.9716520039101
1115	53.763440860215056
1116	9.775171065493646
1117	63.5386119257087
1118	522.9716520039101
1119	53.763440860215056
1120	9.775171065493646
1121	34.21309872922776
1122	469.208211143695
1123	303.030303030303
1124	19.550342130987293
1125	0
1126	166.177908113392
1127	581.622678396872
1128	43.988269794721404
1129	4.887585532746823
1130	43.988269794721404
1131	439.88269794721407
1132	249.266862170088
1133	19.550342130987293
1134	4.887585532746823
1135	97.75171065493646
1136	576.7350928641251
1137	29.325513196480937
1138	4.887585532746823
1139	14.662756598240469
1140	606.060606060606
1141	136.85239491691104
1142	9.775171065493646
1143	4.887585532746823
1144	356.7937438905181
1145	420.33235581622677
1146	29.325513196480937
1147	0
1148	29.325513196480937
1149	493.6461388074291
1150	254.1544477028348
1151	14.662756598240469
1152	9.775171065493646
1153	371.45650048875854
1154	547.4095796676442
1155	19.550342130987293
1156	9.775171065493646
1157	43.988269794721404
1158	581.622678396872
1159	107.52688172043011
1160	4.887585532746823
1161	63.5386119257087
1162	606.060606060606
1163	53.763440860215056
1164	9.775171065493646
1165	24.437927663734115
1166	522.9716520039101
1167	97.75171065493646
1168	4.887585532746823
1169	0
1170	298.1427174975562
1171	410.55718475073314
1172	34.21309872922776
1173	4.887585532746823
1174	58.651026392961874
1175	532.7468230694037
1176	97.75171065493646
1177	9.775171065493646
1178	9.775171065493646
1179	464.3206256109482
1180	219.94134897360703
1181	9.775171065493646
1182	4.887585532746823
1183	156.40273704789834
1184	630.4985337243402
1185	39.100684261974585
1186	9.775171065493646
1187	4.887585532746823
1188	488.7585532746823
1189	131.96480938416423
1190	14.662756598240469
1191	4.887585532746823
1192	376.3440860215054
1193	434.99511241446726
1194	43.988269794721404
1195	9.775171065493646
1196	19.550342130987293
1197	513.1964809384165
1198	156.40273704789834
1199	14.662756598240469
1200	4.887585532746823
1201	332.355816226784
1202	434.99511241446726
1203	43.988269794721404
1204	4.887585532746823
1205	4.887585532746823
1206	439.88269794721407
1207	366.5689149560117
1208	19.550342130987293
1209	4.887585532746823
1210	156.40273704789834
1211	591.3978494623656
1212	34.21309872922776
1213	9.775171065493646
1214	14.662756598240469
1215	464.3206256109482
1216	332.355816226784
1217	14.662756598240469
1218	4.887585532746823
1219	215.05376344086022
1220	508.3088954056696
1221	34.21309872922776
1222	14.662756598240469
1223	9.775171065493646
1224	425.21994134897363
1225	386.119257086999
1226	19.550342130987293
1227	0
1228	215.05376344086022
1229	469.208211143695
1230	83.088954056696
1231	14.662756598240469
1232	4.887585532746823
1233	459.4330400782014
1234	268.81720430107526
1235	19.550342130987293
1236	4.887585532746823
1237	141.73998044965788
1238	527.8592375366569
1239	29.325513196480937
1240	9.775171065493646
1241	34.21309872922776
1242	483.8709677419355
1243	273.7047898338221
1244	14.662756598240469
1245	4.887585532746823
1246	180.84066471163246
1247	488.7585532746823
1248	29.325513196480937
1249	9.775171065493646
1250	4.887585532746823
1251	474.09579667644186
1252	166.177908113392
1253	14.662756598240469
1254	4.887585532746823
1255	161.29032258064515
1256	454.54545454545456
1257	73.31378299120234
1258	4.887585532746823
1259	24.437927663734115
1260	415.44477028347995
1261	356.7937438905181
1262	24.437927663734115
1263	4.887585532746823
1264	195.50342130987292
1265	518.0840664711633
1266	39.100684261974585
1267	9.775171065493646
1268	14.662756598240469
1269	415.44477028347995
1270	293.2551319648094
1271	24.437927663734115
1272	0
1273	127.0772238514174
1274	518.0840664711633
1275	48.87585532746823
1276	9.775171065493646
1277	127.0772238514174
1278	640.2737047898338
1279	34.21309872922776
1280	9.775171065493646
1281	87.97653958944281
1282	474.09579667644186
1283	102.63929618768329
1284	4.887585532746823
1285	0
1286	288.36754643206257
1287	405.66959921798633
1288	34.21309872922776
1289	4.887585532746823
1290	9.775171065493646
1291	434.99511241446726
1292	283.47996089931576
1293	14.662756598240469
1294	4.887585532746823
1295	141.73998044965788
1296	508.3088954056696
1297	29.325513196480937
1298	4.887585532746823
1299	48.87585532746823
1300	586.5102639296188
1301	73.31378299120234
1302	4.887585532746823
1303	58.651026392961874
1304	576.7350928641251
1305	92.86412512218963
1306	4.887585532746823
1307	9.775171065493646
1308	513.1964809384165
1309	131.96480938416423
1310	14.662756598240469
1311	9.775171065493646
1312	298.1427174975562
1313	474.09579667644186
1314	48.87585532746823
1315	4.887585532746823
1316	136.85239491691104
1317	513.1964809384165
1318	34.21309872922776
1319	9.775171065493646
1320	0
1321	391.00684261974584
1322	347.0185728250244
1323	24.437927663734115
1324	9.775171065493646
1325	161.29032258064515
1326	469.208211143695
1327	63.5386119257087
1328	9.775171065493646
1329	39.100684261974585
1330	400.7820136852395
1331	293.2551319648094
1332	14.662756598240469
1333	9.775171065493646
1334	87.97653958944281
1335	557.1847507331378
1336	68.42619745845552
1337	4.887585532746823
1338	122.18963831867057
1339	434.99511241446726
1340	63.5386119257087
1341	9.775171065493646
1342	0
1343	459.4330400782014
1344	307.91788856304987
1345	19.550342130987293
1346	4.887585532746823
1347	87.97653958944281
1348	444.7702834799609
1349	73.31378299120234
1350	4.887585532746823
1351	9.775171065493646
1352	420.33235581622677
1353	356.7937438905181
1354	24.437927663734115
1355	0
1356	48.87585532746823
1357	547.4095796676442
1358	53.763440860215056
1359	4.887585532746823
1360	175.95307917888562
1361	542.5219941348973
1362	58.651026392961874
1363	4.887585532746823
1364	83.088954056696
1365	474.09579667644186
1366	68.42619745845552
1367	4.887585532746823
1368	14.662756598240469
1369	434.99511241446726
1370	293.2551319648094
1371	19.550342130987293
1372	0
1373	87.97653958944281
1374	493.6461388074291
1375	39.100684261974585
1376	9.775171065493646
1377	9.775171065493646
1378	366.5689149560117
1379	332.355816226784
1380	14.662756598240469
1381	9.775171065493646
1382	117.30205278592375
1383	478.9833822091887
1384	78.20136852394917
1385	4.887585532746823
1386	14.662756598240469
1387	415.44477028347995
1388	317.6930596285435
1389	19.550342130987293
1390	9.775171065493646
1391	107.52688172043011
1392	547.4095796676442
1393	34.21309872922776
1394	0
1395	9.775171065493646
1396	395.89442815249265
1397	283.47996089931576
1398	14.662756598240469
1399	9.775171065493646
1400	48.87585532746823
1401	591.3978494623656
1402	43.988269794721404
1403	4.887585532746823
1404	19.550342130987293
1405	332.355816226784
1406	410.55718475073314
1407	29.325513196480937
1408	4.887585532746823
1409	92.86412512218963
1410	425.21994134897363
1411	68.42619745845552
1412	9.775171065493646
1413	0
1414	415.44477028347995
1415	347.0185728250244
1416	19.550342130987293
1417	0
1418	83.088954056696
1419	508.3088954056696
1420	43.988269794721404
1421	9.775171065493646
1422	0
1423	410.55718475073314
1424	356.7937438905181
1425	24.437927663734115
1426	9.775171065493646
1427	78.20136852394917
1428	488.7585532746823
1429	34.21309872922776
1430	4.887585532746823
1431	9.775171065493646
1432	381.2316715542522
1433	317.6930596285435
1434	14.662756598240469
1435	4.887585532746823
1436	73.31378299120234
1437	498.533724340176
1438	53.763440860215056
1439	4.887585532746823
1440	63.5386119257087
1441	518.0840664711633
1442	43.988269794721404
1443	9.775171065493646
1444	14.662756598240469
1445	425.21994134897363
1446	312.8054740957967
1447	24.437927663734115
1448	4.887585532746823
1449	92.86412512218963
1450	488.7585532746823
1451	53.763440860215056
1452	4.887585532746823
1453	43.988269794721404
1454	474.09579667644186
1455	200.39100684261976
1456	9.775171065493646
1457	4.887585532746823
1458	166.177908113392
1459	464.3206256109482
1460	43.988269794721404
1461	0
1462	4.887585532746823
1463	317.6930596285435
1464	293.2551319648094
1465	39.100684261974585
1466	4.887585532746823
1467	39.100684261974585
1468	459.4330400782014
1469	234.6041055718475
1470	14.662756598240469
1471	4.887585532746823
1472	161.29032258064515
1473	410.55718475073314
1474	39.100684261974585
1475	9.775171065493646
1476	0
1477	444.7702834799609
1478	288.36754643206257
1479	19.550342130987293
1480	0
1481	39.100684261974585
1482	503.4213098729228
1483	83.088954056696
1484	4.887585532746823
1485	4.887585532746823
1486	347.0185728250244
1487	298.1427174975562
1488	19.550342130987293
1489	4.887585532746823
1490	14.662756598240469
1491	415.44477028347995
1492	234.6041055718475
1493	4.887585532746823
1494	0
1495	239.49169110459434
1496	547.4095796676442
1497	34.21309872922776
1498	4.887585532746823
1499	122.18963831867057
1500	449.65786901270775
1501	141.73998044965788
1502	9.775171065493646
1503	0
1504	312.8054740957967
1505	347.0185728250244
1506	19.550342130987293
1507	4.887585532746823
1508	166.177908113392
1509	493.6461388074291
1510	48.87585532746823
1511	4.887585532746823
1512	122.18963831867057
1513	449.65786901270775
1514	68.42619745845552
1515	9.775171065493646
1516	14.662756598240469
1517	552.297165200391
1518	141.73998044965788
1519	9.775171065493646
1520	0
1521	239.49169110459434
1522	498.533724340176
1523	34.21309872922776
1524	4.887585532746823
1525	73.31378299120234
1526	469.208211143695
1527	87.97653958944281
1528	4.887585532746823
1529	0
1530	342.1309872922776
1531	415.44477028347995
1532	24.437927663734115
1533	4.887585532746823
1534	14.662756598240469
1535	395.89442815249265
1536	224.82893450635387
1537	14.662756598240469
1538	0
1539	175.95307917888562
1540	425.21994134897363
1541	58.651026392961874
1542	4.887585532746823
1543	78.20136852394917
1544	454.54545454545456
1545	117.30205278592375
1546	4.887585532746823
1547	9.775171065493646
1548	322.5806451612903
1549	420.33235581622677
1550	24.437927663734115
1551	4.887585532746823
1552	34.21309872922776
1553	425.21994134897363
1554	175.95307917888562
1555	9.775171065493646
1556	4.887585532746823
1557	239.49169110459434
1558	400.7820136852395
1559	63.5386119257087
1560	9.775171065493646
1561	48.87585532746823
1562	571.8475073313783
1563	48.87585532746823
1564	0
1565	43.988269794721404
1566	454.54545454545456
1567	263.92961876832845
1568	19.550342130987293
1569	9.775171065493646
1570	200.39100684261976
1571	483.8709677419355
1572	58.651026392961874
1573	4.887585532746823
1574	107.52688172043011
1575	493.6461388074291
1576	48.87585532746823
1577	0
1578	39.100684261974585
1579	444.7702834799609
1580	234.6041055718475
1581	9.775171065493646
1582	4.887585532746823
1583	156.40273704789834
1584	513.1964809384165
1585	19.550342130987293
1586	4.887585532746823
1587	19.550342130987293
1588	449.65786901270775
1589	278.5923753665689
1590	19.550342130987293
1591	4.887585532746823
1592	185.72825024437927
1593	518.0840664711633
1594	29.325513196480937
1595	4.887585532746823
1596	34.21309872922776
1597	454.54545454545456
1598	244.37927663734115
1599	14.662756598240469
1600	4.887585532746823
1601	273.7047898338221
1602	434.99511241446726
1603	58.651026392961874
1604	4.887585532746823
1605	29.325513196480937
1606	474.09579667644186
1607	263.92961876832845
1608	9.775171065493646
1609	9.775171065493646
1610	117.30205278592375
1611	478.9833822091887
1612	58.651026392961874
1613	9.775171065493646
1614	29.325513196480937
1615	459.4330400782014
1616	244.37927663734115
1617	14.662756598240469
1618	4.887585532746823
1619	185.72825024437927
1620	464.3206256109482
1621	58.651026392961874
1622	9.775171065493646
1623	19.550342130987293
1624	439.88269794721407
1625	254.1544477028348
1626	19.550342130987293
1627	0
1628	73.31378299120234
1629	469.208211143695
1630	63.5386119257087
1631	0
1632	19.550342130987293
1633	415.44477028347995
1634	229.7165200391007
1635	9.775171065493646
1636	4.887585532746823
1637	151.5151515151515
1638	478.9833822091887
1639	48.87585532746823
1640	4.887585532746823
1641	29.325513196480937
1642	415.44477028347995
1643	263.92961876832845
1644	9.775171065493646
1645	4.887585532746823
1646	161.29032258064515
1647	508.3088954056696
1648	29.325513196480937
1649	9.775171065493646
1650	9.775171065493646
1651	439.88269794721407
1652	278.5923753665689
1653	14.662756598240469
1654	4.887585532746823
1655	190.6158357771261
1656	469.208211143695
1657	78.20136852394917
1658	4.887585532746823
1659	19.550342130987293
1660	439.88269794721407
1661	273.7047898338221
1662	9.775171065493646
1663	9.775171065493646
1664	146.6275659824047
1665	474.09579667644186
1666	68.42619745845552
1667	0
1668	29.325513196480937
1669	430.10752688172045
1670	288.36754643206257
1671	14.662756598240469
1672	0
1673	156.40273704789834
1674	464.3206256109482
1675	58.651026392961874
1676	9.775171065493646
1677	0
1678	464.3206256109482
1679	322.5806451612903
1680	19.550342130987293
1681	4.887585532746823
1682	127.0772238514174
1683	483.8709677419355
1684	68.42619745845552
1685	0
1686	0
1687	395.89442815249265
1688	268.81720430107526
1689	9.775171065493646
1690	4.887585532746823
1691	146.6275659824047
1692	478.9833822091887
1693	63.5386119257087
1694	4.887585532746823
1695	4.887585532746823
1696	410.55718475073314
1697	298.1427174975562
1698	19.550342130987293
1699	4.887585532746823
1700	112.41446725317694
1701	478.9833822091887
1702	73.31378299120234
1703	4.887585532746823
1704	14.662756598240469
1705	430.10752688172045
1706	278.5923753665689
1707	14.662756598240469
1708	4.887585532746823
1709	166.177908113392
1710	478.9833822091887
1711	73.31378299120234
1712	0
1713	14.662756598240469
1714	430.10752688172045
1715	317.6930596285435
1716	19.550342130987293
1717	4.887585532746823
1718	107.52688172043011
1719	483.8709677419355
1720	53.763440860215056
1721	4.887585532746823
1722	19.550342130987293
1723	420.33235581622677
1724	303.030303030303
1725	14.662756598240469
1726	4.887585532746823
1727	92.86412512218963
1728	483.8709677419355
1729	73.31378299120234
1730	0
1731	4.887585532746823
1732	386.119257086999
1733	293.2551319648094
1734	19.550342130987293
1735	9.775171065493646
1736	136.85239491691104
1737	464.3206256109482
1738	73.31378299120234
1739	0
1740	9.775171065493646
1741	376.3440860215054
1742	307.91788856304987
1743	14.662756598240469
1744	4.887585532746823
1745	131.96480938416423
1746	454.54545454545456
1747	78.20136852394917
1748	4.887585532746823
1749	9.775171065493646
1750	400.7820136852395
1751	337.2434017595308
1752	24.437927663734115
1753	9.775171065493646
1754	92.86412512218963
1755	474.09579667644186
1756	83.088954056696
1757	9.775171065493646
1758	4.887585532746823
1759	420.33235581622677
1760	278.5923753665689
1761	9.775171065493646
1762	0
1763	122.18963831867057
1764	469.208211143695
1765	83.088954056696
1766	9.775171065493646
1767	9.775171065493646
1768	405.66959921798633
1769	298.1427174975562
1770	14.662756598240469
1771	4.887585532746823
1772	92.86412512218963
1773	488.7585532746823
1774	43.988269794721404
1775	4.887585532746823
1776	4.887585532746823
1777	400.7820136852395
1778	283.47996089931576
1779	24.437927663734115
1780	4.887585532746823
1781	83.088954056696
1782	469.208211143695
1783	68.42619745845552
1784	9.775171065493646
1785	9.775171065493646
1786	405.66959921798633
1787	303.030303030303
1788	24.437927663734115
1789	4.887585532746823
1790	97.75171065493646
1791	474.09579667644186
1792	78.20136852394917
1793	9.775171065493646
1794	4.887585532746823
1795	410.55718475073314
1796	288.36754643206257
1797	14.662756598240469
1798	4.887585532746823
1799	117.30205278592375
1800	508.3088954056696
1801	39.100684261974585
1802	4.887585532746823
1803	9.775171065493646
1804	366.5689149560117
1805	322.5806451612903
1806	29.325513196480937
1807	9.775171065493646
1808	97.75171065493646
1809	474.09579667644186
1810	83.088954056696
1811	14.662756598240469
1812	4.887585532746823
1813	371.45650048875854
1814	322.5806451612903
1815	19.550342130987293
1816	4.887585532746823
1817	87.97653958944281
1818	439.88269794721407
1819	68.42619745845552
1820	4.887585532746823
1821	9.775171065493646
1822	381.2316715542522
1823	351.90615835777123
1824	14.662756598240469
1825	4.887585532746823
1826	53.763440860215056
1827	478.9833822091887
1828	87.97653958944281
1829	9.775171065493646
1830	9.775171065493646
1831	361.6813294232649
1832	337.2434017595308
1833	29.325513196480937
1834	0
1835	78.20136852394917
1836	469.208211143695
1837	97.75171065493646
1838	9.775171065493646
1839	4.887585532746823
1840	371.45650048875854
1841	332.355816226784
1842	19.550342130987293
1843	4.887585532746823
1844	63.5386119257087
1845	488.7585532746823
1846	39.100684261974585
1847	4.887585532746823
1848	4.887585532746823
1849	356.7937438905181
1850	332.355816226784
1851	24.437927663734115
1852	0
1853	68.42619745845552
1854	518.0840664711633
1855	43.988269794721404
1856	9.775171065493646
1857	9.775171065493646
1858	391.00684261974584
1859	298.1427174975562
1860	19.550342130987293
1861	9.775171065493646
1862	73.31378299120234
1863	503.4213098729228
1864	43.988269794721404
1865	9.775171065493646
1866	0
1867	386.119257086999
1868	356.7937438905181
1869	29.325513196480937
1870	4.887585532746823
1871	53.763440860215056
1872	449.65786901270775
1873	87.97653958944281
1874	4.887585532746823
1875	4.887585532746823
1876	342.1309872922776
1877	307.91788856304987
1878	14.662756598240469
1879	4.887585532746823
1880	68.42619745845552
1881	483.8709677419355
1882	87.97653958944281
1883	4.887585532746823
1884	0
1885	361.6813294232649
1886	356.7937438905181
1887	24.437927663734115
1888	4.887585532746823
1889	63.5386119257087
1890	469.208211143695
1891	97.75171065493646
1892	9.775171065493646
1893	4.887585532746823
1894	322.5806451612903
1895	351.90615835777123
1896	29.325513196480937
1897	4.887585532746823
1898	58.651026392961874
1899	493.6461388074291
1900	53.763440860215056
1901	9.775171065493646
1902	43.988269794721404
1903	425.21994134897363
1904	210.16617790811338
1905	14.662756598240469
1906	9.775171065493646
1907	215.05376344086022
1908	425.21994134897363
1909	39.100684261974585
1910	14.662756598240469
1911	0
1912	356.7937438905181
1913	361.6813294232649
1914	29.325513196480937
1915	9.775171065493646
1916	53.763440860215056
1917	522.9716520039101
1918	39.100684261974585
1919	4.887585532746823
1920	9.775171065493646
1921	361.6813294232649
1922	356.7937438905181
1923	24.437927663734115
1924	9.775171065493646
1925	48.87585532746823
1926	444.7702834799609
1927	92.86412512218963
1928	4.887585532746823
1929	9.775171065493646
1930	366.5689149560117
1931	347.0185728250244
1932	24.437927663734115
1933	4.887585532746823
1934	68.42619745845552
1935	474.09579667644186
1936	117.30205278592375
1937	14.662756598240469
1938	4.887585532746823
1939	332.355816226784
1940	342.1309872922776
1941	29.325513196480937
1942	0
1943	43.988269794721404
1944	454.54545454545456
1945	219.94134897360703
1946	4.887585532746823
1947	0
1948	205.27859237536657
1949	439.88269794721407
1950	58.651026392961874
1951	4.887585532746823
1952	73.31378299120234
1953	478.9833822091887
1954	102.63929618768329
1955	4.887585532746823
1956	4.887585532746823
1957	337.2434017595308
1958	347.0185728250244
1959	24.437927663734115
1960	9.775171065493646
1961	48.87585532746823
1962	513.1964809384165
1963	53.763440860215056
1964	4.887585532746823
1965	48.87585532746823
1966	513.1964809384165
1967	58.651026392961874
1968	4.887585532746823
1969	48.87585532746823
1970	493.6461388074291
1971	48.87585532746823
1972	4.887585532746823
1973	34.21309872922776
1974	420.33235581622677
1975	229.7165200391007
1976	14.662756598240469
1977	9.775171065493646
1978	185.72825024437927
1979	483.8709677419355
1980	63.5386119257087
1981	4.887585532746823
1982	43.988269794721404
1983	464.3206256109482
1984	239.49169110459434
1985	14.662756598240469
1986	0
1987	180.84066471163246
1988	478.9833822091887
1989	58.651026392961874
1990	0
1991	39.100684261974585
1992	400.7820136852395
1993	210.16617790811338
1994	9.775171065493646
1995	0
1996	180.84066471163246
1997	444.7702834799609
1998	43.988269794721404
1999	4.887585532746823
2000	4.887585532746823
2001	303.030303030303
2002	347.0185728250244
2003	29.325513196480937
2004	4.887585532746823
2005	34.21309872922776
2006	415.44477028347995
2007	219.94134897360703
2008	14.662756598240469
2009	9.775171065493646
2010	161.29032258064515
2011	410.55718475073314
2012	48.87585532746823
2013	0
2014	19.550342130987293
2015	400.7820136852395
2016	224.82893450635387
2017	14.662756598240469
2018	9.775171065493646
2019	156.40273704789834
2020	444.7702834799609
2021	53.763440860215056
2022	4.887585532746823
2023	29.325513196480937
2024	410.55718475073314
2025	219.94134897360703
2026	9.775171065493646
2027	4.887585532746823
2028	166.177908113392
2029	454.54545454545456
2030	48.87585532746823
2031	0
2032	39.100684261974585
2033	430.10752688172045
2034	239.49169110459434
2035	19.550342130987293
2036	9.775171065493646
2037	156.40273704789834
2038	415.44477028347995
2039	48.87585532746823
2040	9.775171065493646
2041	19.550342130987293
2042	400.7820136852395
2043	229.7165200391007
2044	14.662756598240469
2045	4.887585532746823
2046	166.177908113392
2047	449.65786901270775
2048	63.5386119257087
2049	9.775171065493646
2050	43.988269794721404
2051	415.44477028347995
2052	273.7047898338221
2053	19.550342130987293
2054	9.775171065493646
2055	136.85239491691104
2056	454.54545454545456
2057	53.763440860215056
2058	0
2059	24.437927663734115
2060	410.55718475073314
2061	259.04203323558164
2062	9.775171065493646
2063	4.887585532746823
2064	136.85239491691104
2065	434.99511241446726
2066	53.763440860215056
2067	4.887585532746823
2068	29.325513196480937
2069	381.2316715542522
2070	244.37927663734115
2071	19.550342130987293
2072	0
2073	136.85239491691104
2074	439.88269794721407
2075	53.763440860215056
2076	4.887585532746823
2077	24.437927663734115
2078	439.88269794721407
2079	259.04203323558164
2080	9.775171065493646
2081	4.887585532746823
2082	141.73998044965788
2083	449.65786901270775
2084	48.87585532746823
2085	0
2086	43.988269794721404
2087	395.89442815249265
2088	244.37927663734115
2089	19.550342130987293
2090	4.887585532746823
2091	180.84066471163246
2092	478.9833822091887
2093	68.42619745845552
2094	9.775171065493646
2095	14.662756598240469
2096	420.33235581622677
2097	312.8054740957967
2098	14.662756598240469
2099	0
2100	131.96480938416423
2101	439.88269794721407
2102	53.763440860215056
2103	4.887585532746823
2104	29.325513196480937
2105	391.00684261974584
2106	229.7165200391007
2107	14.662756598240469
2108	4.887585532746823
2109	136.85239491691104
2110	527.8592375366569
2111	43.988269794721404
2112	9.775171065493646
2113	14.662756598240469
2114	420.33235581622677
2115	210.16617790811338
2116	9.775171065493646
2117	9.775171065493646
2118	180.84066471163246
2119	449.65786901270775
2120	58.651026392961874
2121	4.887585532746823
2122	9.775171065493646
2123	347.0185728250244
2124	268.81720430107526
2125	14.662756598240469
2126	9.775171065493646
2127	0
2128	576.7350928641251
2129	102.63929618768329
2130	9.775171065493646
2131	19.550342130987293
2132	307.91788856304987
2133	278.5923753665689
2134	9.775171065493646
2135	9.775171065493646
2136	24.437927663734115
2137	249.266862170088
2138	127.0772238514174
2139	14.662756598240469
2140	0
2141	410.55718475073314
2142	229.7165200391007
2143	14.662756598240469
2144	9.775171065493646
2145	58.651026392961874
2146	34.21309872922776
2147	219.94134897360703
2148	9.775171065493646
2149	0
2150	9.775171065493646
2151	537.6344086021505
2152	185.72825024437927
2153	4.887585532746823
2154	73.31378299120234
2155	405.66959921798633
2156	39.100684261974585
2157	4.887585532746823
2158	4.887585532746823
2159	53.763440860215056
2160	283.47996089931576
2161	29.325513196480937
2162	0
2163	4.887585532746823
2164	640.2737047898338
2165	244.37927663734115
2166	43.988269794721404
2167	4.887585532746823
2168	205.27859237536657
2169	591.3978494623656
2170	68.42619745845552
2171	4.887585532746823
2172	92.86412512218963
2173	488.7585532746823
2174	24.437927663734115
2175	4.887585532746823
2176	24.437927663734115
2177	415.44477028347995
2178	146.6275659824047
2179	9.775171065493646
2180	0
2181	4.887585532746823
2182	307.91788856304987
2183	342.1309872922776
2184	19.550342130987293
2185	9.775171065493646
2186	161.29032258064515
2187	474.09579667644186
2188	102.63929618768329
2189	14.662756598240469
2190	53.763440860215056
2191	478.9833822091887
2192	53.763440860215056
2193	4.887585532746823
2194	0
2195	312.8054740957967
2196	386.119257086999
2197	24.437927663734115
2198	9.775171065493646
2199	190.6158357771261
2200	430.10752688172045
2201	39.100684261974585
2202	4.887585532746823
2203	0
2204	405.66959921798633
2205	405.66959921798633
2206	117.30205278592375
2207	4.887585532746823
2208	141.73998044965788
2209	508.3088954056696
2210	29.325513196480937
2211	0
2212	43.988269794721404
2213	278.5923753665689
2214	356.7937438905181
2215	29.325513196480937
2216	9.775171065493646
2217	53.763440860215056
2218	391.00684261974584
2219	53.763440860215056
2220	4.887585532746823
2221	0
2222	415.44477028347995
2223	293.2551319648094
2224	29.325513196480937
2225	0
2226	171.0654936461388
2227	278.5923753665689
2228	24.437927663734115
2229	0
2230	161.29032258064515
2231	332.355816226784
2232	205.27859237536657
2233	14.662756598240469
2234	9.775171065493646
2235	268.81720430107526
2236	557.1847507331378
2237	19.550342130987293
2238	4.887585532746823
2239	4.887585532746823
2240	518.0840664711633
2241	156.40273704789834
2242	9.775171065493646
2243	112.41446725317694
2244	234.6041055718475
2245	180.84066471163246
2246	9.775171065493646
2247	0
2248	53.763440860215056
2249	684.2619745845552
2250	58.651026392961874
2251	4.887585532746823
2252	19.550342130987293
2253	337.2434017595308
2254	146.6275659824047
2255	14.662756598240469
2256	4.887585532746823
2257	229.7165200391007
2258	268.81720430107526
2259	53.763440860215056
2260	0
2261	185.72825024437927
2262	371.45650048875854
2263	43.988269794721404
2264	9.775171065493646
2265	4.887585532746823
2266	366.5689149560117
2267	254.1544477028348
2268	19.550342130987293
2269	9.775171065493646
2270	0
2271	425.21994134897363
2272	141.73998044965788
2273	9.775171065493646
2274	4.887585532746823
2275	4.887585532746823
2276	439.88269794721407
2277	322.5806451612903
2278	19.550342130987293
2279	9.775171065493646
2280	107.52688172043011
2281	522.9716520039101
2282	19.550342130987293
2283	0
2284	117.30205278592375
2285	288.36754643206257
2286	127.0772238514174
2287	9.775171065493646
2288	24.437927663734115
2289	371.45650048875854
2290	239.49169110459434
2291	29.325513196480937
2292	4.887585532746823
2293	83.088954056696
2294	400.7820136852395
2295	58.651026392961874
2296	9.775171065493646
2297	58.651026392961874
2298	351.90615835777123
2299	219.94134897360703
2300	4.887585532746823
2301	0
2302	268.81720430107526
2303	415.44477028347995
2304	58.651026392961874
2305	9.775171065493646
2306	146.6275659824047
2307	576.7350928641251
2308	39.100684261974585
2309	4.887585532746823
2310	312.8054740957967
2311	307.91788856304987
2312	122.18963831867057
2313	9.775171065493646
2314	9.775171065493646
2315	327.4682306940371
2316	610.9481915933529
2317	29.325513196480937
2318	4.887585532746823
2319	122.18963831867057
2320	395.89442815249265
2321	73.31378299120234
2322	4.887585532746823
2323	4.887585532746823
2324	185.72825024437927
2325	298.1427174975562
2326	24.437927663734115
2327	4.887585532746823
2328	102.63929618768329
2329	557.1847507331378
2330	73.31378299120234
2331	9.775171065493646
2332	9.775171065493646
2333	224.82893450635387
2334	381.2316715542522
2335	19.550342130987293
2336	4.887585532746823
2337	239.49169110459434
2338	562.0723362658847
2339	24.437927663734115
2340	9.775171065493646
2341	117.30205278592375
2342	434.99511241446726
2343	68.42619745845552
2344	4.887585532746823
2345	4.887585532746823
2346	322.5806451612903
2347	254.1544477028348
2348	4.887585532746823
2349	9.775171065493646
2350	102.63929618768329
2351	410.55718475073314
2352	58.651026392961874
2353	4.887585532746823
2354	0
2355	244.37927663734115
2356	444.7702834799609
2357	29.325513196480937
2358	4.887585532746823
2359	53.763440860215056
2360	430.10752688172045
2361	73.31378299120234
2362	9.775171065493646
2363	0
2364	366.5689149560117
2365	268.81720430107526
2366	58.651026392961874
2367	4.887585532746823
2368	215.05376344086022
2369	312.8054740957967
2370	19.550342130987293
2371	4.887585532746823
2372	4.887585532746823
2373	303.030303030303
2374	420.33235581622677
2375	34.21309872922776
2376	4.887585532746823
2377	87.97653958944281
2378	444.7702834799609
2379	102.63929618768329
2380	4.887585532746823
2381	0
2382	332.355816226784
2383	303.030303030303
2384	29.325513196480937
2385	0
2386	14.662756598240469
2387	581.622678396872
2388	107.52688172043011
2389	4.887585532746823
2390	0
2391	151.5151515151515
2392	474.09579667644186
2393	48.87585532746823
2394	0
2395	195.50342130987292
2396	547.4095796676442
2397	29.325513196480937
2398	4.887585532746823
2399	48.87585532746823
2400	425.21994134897363
2401	97.75171065493646
2402	9.775171065493646
2403	0
2404	259.04203323558164
2405	234.6041055718475
2406	19.550342130987293
2407	0
2408	73.31378299120234
2409	654.9364613880742
2410	48.87585532746823
2411	0
2412	58.651026392961874
2413	400.7820136852395
2414	127.0772238514174
2415	4.887585532746823
2416	4.887585532746823
2417	366.5689149560117
2418	361.6813294232649
2419	34.21309872922776
2420	4.887585532746823
2421	14.662756598240469
2422	337.2434017595308
2423	219.94134897360703
2424	9.775171065493646
2425	4.887585532746823
2426	259.04203323558164
2427	488.7585532746823
2428	29.325513196480937
2429	9.775171065493646
2430	9.775171065493646
2431	532.7468230694037
2432	53.763440860215056
2433	4.887585532746823
2434	34.21309872922776
2435	249.266862170088
2436	303.030303030303
2437	9.775171065493646
2438	4.887585532746823
2439	48.87585532746823
2440	513.1964809384165
2441	43.988269794721404
2442	14.662756598240469
2443	4.887585532746823
2444	337.2434017595308
2445	351.90615835777123
2446	34.21309872922776
2447	4.887585532746823
2448	14.662756598240469
2449	415.44477028347995
2450	303.030303030303
2451	19.550342130987293
2452	9.775171065493646
2453	224.82893450635387
2454	513.1964809384165
2455	39.100684261974585
2456	9.775171065493646
2457	63.5386119257087
2458	371.45650048875854
2459	112.41446725317694
2460	9.775171065493646
2461	9.775171065493646
2462	195.50342130987292
2463	317.6930596285435
2464	39.100684261974585
2465	0
2466	0
2467	327.4682306940371
2468	312.8054740957967
2469	19.550342130987293
2470	4.887585532746823
2471	122.18963831867057
2472	464.3206256109482
2473	63.5386119257087
2474	4.887585532746823
2475	107.52688172043011
2476	430.10752688172045
2477	117.30205278592375
2478	4.887585532746823
2479	4.887585532746823
2480	366.5689149560117
2481	371.45650048875854
2482	29.325513196480937
2483	4.887585532746823
2484	39.100684261974585
2485	542.5219941348973
2486	97.75171065493646
2487	9.775171065493646
2488	4.887585532746823
2489	259.04203323558164
2490	322.5806451612903
2491	29.325513196480937
2492	4.887585532746823
2493	48.87585532746823
2494	557.1847507331378
2495	58.651026392961874
2496	9.775171065493646
2497	24.437927663734115
2498	268.81720430107526
2499	175.95307917888562
2500	14.662756598240469
2501	0
2502	83.088954056696
2503	596.2854349951124
2504	68.42619745845552
2505	4.887585532746823
2506	234.6041055718475
2507	488.7585532746823
2508	29.325513196480937
2509	0
2510	9.775171065493646
2511	449.65786901270775
2512	263.92961876832845
2513	14.662756598240469
2514	0
2515	146.6275659824047
2516	542.5219941348973
2517	24.437927663734115
2518	0
2519	9.775171065493646
2520	288.36754643206257
2521	312.8054740957967
2522	19.550342130987293
2523	4.887585532746823
2524	122.18963831867057
2525	386.119257086999
2526	102.63929618768329
2527	9.775171065493646
2528	9.775171065493646
2529	337.2434017595308
2530	234.6041055718475
2531	14.662756598240469
2532	4.887585532746823
2533	58.651026392961874
2534	586.5102639296188
2535	43.988269794721404
2536	9.775171065493646
2537	39.100684261974585
2538	391.00684261974584
2539	151.5151515151515
2540	4.887585532746823
2541	9.775171065493646
2542	92.86412512218963
2543	415.44477028347995
2544	53.763440860215056
2545	4.887585532746823
2546	131.96480938416423
2547	469.208211143695
2548	102.63929618768329
2549	9.775171065493646
2550	0
2551	166.177908113392
2552	376.3440860215054
2553	39.100684261974585
2554	9.775171065493646
2555	43.988269794721404
2556	366.5689149560117
2557	224.82893450635387
2558	9.775171065493646
2559	0
2560	97.75171065493646
2561	391.00684261974584
2562	63.5386119257087
2563	0
2564	34.21309872922776
2565	395.89442815249265
2566	312.8054740957967
2567	19.550342130987293
2568	4.887585532746823
2569	58.651026392961874
2570	508.3088954056696
2571	43.988269794721404
2572	4.887585532746823
2573	9.775171065493646
2574	371.45650048875854
2575	283.47996089931576
2576	24.437927663734115
2577	4.887585532746823
2578	112.41446725317694
2579	405.66959921798633
2580	68.42619745845552
2581	0
2582	9.775171065493646
2583	400.7820136852395
2584	298.1427174975562
2585	9.775171065493646
2586	0
2587	58.651026392961874
2588	415.44477028347995
2589	63.5386119257087
2590	9.775171065493646
2591	4.887585532746823
2592	249.266862170088
2593	273.7047898338221
2594	19.550342130987293
2595	0
2596	244.37927663734115
2597	454.54545454545456
2598	48.87585532746823
2599	9.775171065493646
2600	14.662756598240469
2601	386.119257086999
2602	327.4682306940371
2603	19.550342130987293
2604	4.887585532746823
2605	112.41446725317694
2606	513.1964809384165
2607	43.988269794721404
2608	9.775171065493646
2609	4.887585532746823
2610	361.6813294232649
2611	278.5923753665689
2612	19.550342130987293
2613	4.887585532746823
2614	117.30205278592375
2615	400.7820136852395
2616	39.100684261974585
2617	9.775171065493646
2618	0
2619	361.6813294232649
2620	303.030303030303
2621	19.550342130987293
2622	4.887585532746823
2623	9.775171065493646
2624	371.45650048875854
2625	200.39100684261976
2626	19.550342130987293
2627	4.887585532746823
2628	92.86412512218963
2629	513.1964809384165
2630	43.988269794721404
2631	9.775171065493646
2632	4.887585532746823
2633	332.355816226784
2634	283.47996089931576
2635	19.550342130987293
2636	0
2637	68.42619745845552
2638	478.9833822091887
2639	78.20136852394917
2640	9.775171065493646
2641	0
2642	381.2316715542522
2643	332.355816226784
2644	19.550342130987293
2645	4.887585532746823
2646	29.325513196480937
2647	405.66959921798633
2648	254.1544477028348
2649	19.550342130987293
2650	0
2651	195.50342130987292
2652	395.89442815249265
2653	39.100684261974585
2654	4.887585532746823
2655	43.988269794721404
2656	312.8054740957967
2657	283.47996089931576
2658	19.550342130987293
2659	9.775171065493646
2660	92.86412512218963
2661	444.7702834799609
2662	58.651026392961874
2663	4.887585532746823
2664	14.662756598240469
2665	351.90615835777123
2666	249.266862170088
2667	24.437927663734115
2668	4.887585532746823
2669	102.63929618768329
2670	347.0185728250244
2671	92.86412512218963
2672	0
2673	0
2674	244.37927663734115
2675	361.6813294232649
2676	24.437927663734115
2677	9.775171065493646
2678	127.0772238514174
2679	464.3206256109482
2680	58.651026392961874
2681	9.775171065493646
2682	14.662756598240469
2683	454.54545454545456
2684	293.2551319648094
2685	24.437927663734115
2686	4.887585532746823
2687	107.52688172043011
2688	454.54545454545456
2689	83.088954056696
2690	4.887585532746823
2691	9.775171065493646
2692	210.16617790811338
2693	366.5689149560117
2694	19.550342130987293
2695	4.887585532746823
2696	97.75171065493646
2697	425.21994134897363
2698	102.63929618768329
2699	0
2700	0
2701	420.33235581622677
2702	332.355816226784
2703	24.437927663734115
2704	4.887585532746823
2705	156.40273704789834
2706	474.09579667644186
2707	83.088954056696
2708	0
2709	9.775171065493646
2710	303.030303030303
2711	317.6930596285435
2712	34.21309872922776
2713	4.887585532746823
2714	73.31378299120234
2715	454.54545454545456
2716	102.63929618768329
2717	4.887585532746823
2718	14.662756598240469
2719	278.5923753665689
2720	454.54545454545456
2721	29.325513196480937
2722	4.887585532746823
2723	58.651026392961874
2724	493.6461388074291
2725	58.651026392961874
2726	4.887585532746823
2727	117.30205278592375
2728	503.4213098729228
2729	43.988269794721404
2730	9.775171065493646
2731	9.775171065493646
2732	356.7937438905181
2733	434.99511241446726
2734	34.21309872922776
2735	14.662756598240469
2736	112.41446725317694
2737	444.7702834799609
2738	97.75171065493646
2739	4.887585532746823
2740	24.437927663734115
2741	439.88269794721407
2742	351.90615835777123
2743	19.550342130987293
2744	0
2745	34.21309872922776
2746	288.36754643206257
2747	366.5689149560117
2748	19.550342130987293
2749	9.775171065493646
2750	278.5923753665689
2751	615.8357771260997
2752	29.325513196480937
2753	0
2754	19.550342130987293
2755	386.119257086999
2756	224.82893450635387
2757	9.775171065493646
2758	4.887585532746823
2759	298.1427174975562
2760	449.65786901270775
2761	63.5386119257087
2762	9.775171065493646
2763	53.763440860215056
2764	430.10752688172045
2765	87.97653958944281
2766	9.775171065493646
2767	0
2768	420.33235581622677
2769	303.030303030303
2770	24.437927663734115
2771	0
2772	78.20136852394917
2773	503.4213098729228
2774	43.988269794721404
2775	4.887585532746823
2776	9.775171065493646
2777	386.119257086999
2778	298.1427174975562
2779	24.437927663734115
2780	0
2781	68.42619745845552
2782	420.33235581622677
2783	136.85239491691104
2784	14.662756598240469
2785	9.775171065493646
2786	273.7047898338221
2787	430.10752688172045
2788	34.21309872922776
2789	4.887585532746823
2790	43.988269794721404
2791	395.89442815249265
2792	210.16617790811338
2793	14.662756598240469
2794	0
2795	195.50342130987292
2796	420.33235581622677
2797	53.763440860215056
2798	0
2799	63.5386119257087
2800	430.10752688172045
2801	92.86412512218963
2802	14.662756598240469
2803	4.887585532746823
2804	298.1427174975562
2805	307.91788856304987
2806	24.437927663734115
2807	0
2808	78.20136852394917
2809	478.9833822091887
2810	122.18963831867057
2811	9.775171065493646
2812	4.887585532746823
2813	303.030303030303
2814	332.355816226784
2815	19.550342130987293
2816	4.887585532746823
2817	24.437927663734115
2818	395.89442815249265
2819	190.6158357771261
2820	9.775171065493646
2821	0
2822	200.39100684261976
2823	464.3206256109482
2824	63.5386119257087
2825	9.775171065493646
2826	29.325513196480937
2827	434.99511241446726
2828	229.7165200391007
2829	9.775171065493646
2830	9.775171065493646
2831	136.85239491691104
2832	425.21994134897363
2833	48.87585532746823
2834	9.775171065493646
2835	14.662756598240469
2836	381.2316715542522
2837	229.7165200391007
2838	19.550342130987293
2839	4.887585532746823
2840	161.29032258064515
2841	459.4330400782014
2842	63.5386119257087
2843	0
2844	34.21309872922776
2845	391.00684261974584
2846	224.82893450635387
2847	9.775171065493646
2848	4.887585532746823
2849	141.73998044965788
2850	444.7702834799609
2851	48.87585532746823
2852	4.887585532746823
2853	24.437927663734115
2854	391.00684261974584
2855	254.1544477028348
2856	19.550342130987293
2857	4.887585532746823
2858	151.5151515151515
2859	454.54545454545456
2860	58.651026392961874
2861	0
2862	24.437927663734115
2863	381.2316715542522
2864	254.1544477028348
2865	9.775171065493646
2866	9.775171065493646
2867	141.73998044965788
2868	454.54545454545456
2869	58.651026392961874
2870	9.775171065493646
2871	24.437927663734115
2872	400.7820136852395
2873	200.39100684261976
2874	14.662756598240469
2875	4.887585532746823
2876	146.6275659824047
2877	464.3206256109482
2878	53.763440860215056
2879	0
2880	4.887585532746823
2881	381.2316715542522
2882	254.1544477028348
2883	24.437927663734115
2884	4.887585532746823
2885	107.52688172043011
2886	469.208211143695
2887	63.5386119257087
2888	4.887585532746823
2889	24.437927663734115
2890	395.89442815249265
2891	244.37927663734115
2892	14.662756598240469
2893	0
2894	151.5151515151515
2895	439.88269794721407
2896	48.87585532746823
2897	4.887585532746823
2898	14.662756598240469
2899	410.55718475073314
2900	283.47996089931576
2901	9.775171065493646
2902	9.775171065493646
2903	180.84066471163246
2904	478.9833822091887
2905	68.42619745845552
2906	4.887585532746823
2907	9.775171065493646
2908	381.2316715542522
2909	249.266862170088
2910	4.887585532746823
2911	4.887585532746823
2912	136.85239491691104
2913	498.533724340176
2914	29.325513196480937
2915	4.887585532746823
2916	24.437927663734115
2917	410.55718475073314
2918	312.8054740957967
2919	19.550342130987293
2920	4.887585532746823
2921	97.75171065493646
2922	425.21994134897363
2923	63.5386119257087
2924	4.887585532746823
2925	14.662756598240469
2926	395.89442815249265
2927	317.6930596285435
2928	19.550342130987293
2929	0
2930	127.0772238514174
2931	454.54545454545456
2932	63.5386119257087
2933	4.887585532746823
2934	24.437927663734115
2935	420.33235581622677
2936	273.7047898338221
2937	14.662756598240469
2938	4.887585532746823
2939	127.0772238514174
2940	425.21994134897363
2941	58.651026392961874
2942	9.775171065493646
2943	9.775171065493646
2944	376.3440860215054
2945	293.2551319648094
2946	24.437927663734115
2947	0
2948	97.75171065493646
2949	478.9833822091887
2950	53.763440860215056
2951	4.887585532746823
2952	34.21309872922776
2953	400.7820136852395
2954	244.37927663734115
2955	9.775171065493646
2956	0
2957	112.41446725317694
2958	410.55718475073314
2959	63.5386119257087
2960	9.775171065493646
2961	9.775171065493646
2962	356.7937438905181
2963	293.2551319648094
2964	19.550342130987293
2965	9.775171065493646
2966	97.75171065493646
2967	532.7468230694037
2968	39.100684261974585
2969	9.775171065493646
2970	14.662756598240469
2971	381.2316715542522
2972	283.47996089931576
2973	14.662756598240469
2974	9.775171065493646
2975	136.85239491691104
2976	483.8709677419355
2977	78.20136852394917
2978	0
2979	19.550342130987293
2980	381.2316715542522
2981	278.5923753665689
2982	14.662756598240469
2983	4.887585532746823
2984	92.86412512218963
2985	434.99511241446726
2986	68.42619745845552
2987	4.887585532746823
2988	9.775171065493646
2989	405.66959921798633
2990	307.91788856304987
2991	24.437927663734115
2992	0
2993	97.75171065493646
2994	469.208211143695
2995	78.20136852394917
2996	9.775171065493646
2997	9.775171065493646
2998	371.45650048875854
2999	307.91788856304987
3000	19.550342130987293
3001	4.887585532746823
3002	87.97653958944281
3003	439.88269794721407
3004	68.42619745845552
3005	4.887585532746823
3006	0
3007	391.00684261974584
3008	307.91788856304987
3009	24.437927663734115
3010	4.887585532746823
3011	97.75171065493646
3012	469.208211143695
3013	73.31378299120234
3014	0
3015	9.775171065493646
3016	361.6813294232649
3017	293.2551319648094
3018	19.550342130987293
3019	9.775171065493646
3020	117.30205278592375
3021	395.89442815249265
3022	83.088954056696
3023	4.887585532746823
3024	0
3025	386.119257086999
3026	288.36754643206257
3027	24.437927663734115
3028	4.887585532746823
3029	48.87585532746823
3030	444.7702834799609
3031	78.20136852394917
3032	9.775171065493646
3033	9.775171065493646
3034	381.2316715542522
3035	224.82893450635387
3036	19.550342130987293
3037	4.887585532746823
3038	73.31378299120234
3039	454.54545454545456
3040	78.20136852394917
3041	0
3042	4.887585532746823
3043	371.45650048875854
3044	288.36754643206257
3045	19.550342130987293
3046	0
3047	83.088954056696
3048	469.208211143695
3049	83.088954056696
3050	4.887585532746823
3051	14.662756598240469
3052	386.119257086999
3053	268.81720430107526
3054	24.437927663734115
3055	0
3056	87.97653958944281
3057	464.3206256109482
3058	78.20136852394917
3059	9.775171065493646
3060	0
3061	366.5689149560117
3062	312.8054740957967
3063	24.437927663734115
3064	4.887585532746823
3065	78.20136852394917
3066	434.99511241446726
3067	73.31378299120234
3068	4.887585532746823
3069	4.887585532746823
3070	347.0185728250244
3071	298.1427174975562
3072	9.775171065493646
3073	4.887585532746823
3074	112.41446725317694
3075	459.4330400782014
3076	68.42619745845552
3077	4.887585532746823
3078	0
3079	371.45650048875854
3080	337.2434017595308
3081	24.437927663734115
3082	4.887585532746823
3083	122.18963831867057
3084	444.7702834799609
3085	78.20136852394917
3086	0
3087	4.887585532746823
3088	351.90615835777123
3089	342.1309872922776
3090	24.437927663734115
3091	9.775171065493646
3092	68.42619745845552
3093	478.9833822091887
3094	63.5386119257087
3095	4.887585532746823
3096	4.887585532746823
3097	356.7937438905181
3098	322.5806451612903
3099	19.550342130987293
3100	4.887585532746823
3101	73.31378299120234
3102	464.3206256109482
3103	78.20136852394917
3104	0
3105	9.775171065493646
3106	317.6930596285435
3107	288.36754643206257
3108	19.550342130987293
3109	0
3110	68.42619745845552
3111	464.3206256109482
3112	83.088954056696
3113	9.775171065493646
3114	4.887585532746823
3115	288.36754643206257
3116	317.6930596285435
3117	29.325513196480937
3118	4.887585532746823
3119	53.763440860215056
3120	449.65786901270775
3121	92.86412512218963
3122	9.775171065493646
3123	4.887585532746823
3124	386.119257086999
3125	298.1427174975562
3126	24.437927663734115
3127	4.887585532746823
3128	58.651026392961874
3129	474.09579667644186
3130	102.63929618768329
3131	4.887585532746823
3132	9.775171065493646
3133	361.6813294232649
3134	347.0185728250244
3135	34.21309872922776
3136	9.775171065493646
3137	53.763440860215056
3138	449.65786901270775
3139	87.97653958944281
3140	4.887585532746823
3141	0
3142	322.5806451612903
3143	337.2434017595308
3144	29.325513196480937
3145	4.887585532746823
3146	63.5386119257087
3147	498.533724340176
3148	53.763440860215056
3149	4.887585532746823
3150	48.87585532746823
3151	483.8709677419355
3152	107.52688172043011
3153	14.662756598240469
3154	4.887585532746823
3155	288.36754643206257
3156	347.0185728250244
3157	19.550342130987293
3158	4.887585532746823
3159	48.87585532746823
3160	474.09579667644186
3161	97.75171065493646
3162	9.775171065493646
3163	4.887585532746823
3164	312.8054740957967
3165	347.0185728250244
3166	19.550342130987293
3167	9.775171065493646
3168	24.437927663734115
3169	439.88269794721407
3170	205.27859237536657
3171	9.775171065493646
3172	0
3173	229.7165200391007
3174	478.9833822091887
3175	48.87585532746823
3176	4.887585532746823
3177	58.651026392961874
3178	488.7585532746823
3179	48.87585532746823
3180	4.887585532746823
3181	68.42619745845552
3182	527.8592375366569
3183	48.87585532746823
3184	0
3185	43.988269794721404
3186	425.21994134897363
3187	219.94134897360703
3188	19.550342130987293
3189	0
3190	180.84066471163246
3191	430.10752688172045
3192	58.651026392961874
3193	4.887585532746823
3194	39.100684261974585
3195	434.99511241446726
3196	205.27859237536657
3197	14.662756598240469
3198	4.887585532746823
3199	205.27859237536657
3200	454.54545454545456
3201	58.651026392961874
3202	4.887585532746823
3203	29.325513196480937
3204	434.99511241446726
3205	229.7165200391007
3206	14.662756598240469
3207	4.887585532746823
3208	180.84066471163246
3209	434.99511241446726
3210	53.763440860215056
3211	9.775171065493646
3212	43.988269794721404
3213	434.99511241446726
3214	229.7165200391007
3215	9.775171065493646
3216	0
3217	180.84066471163246
3218	434.99511241446726
3219	53.763440860215056
3220	4.887585532746823
3221	48.87585532746823
3222	469.208211143695
3223	112.41446725317694
3224	4.887585532746823
3225	0
3226	332.355816226784
3227	386.119257086999
3228	24.437927663734115
3229	4.887585532746823
3230	39.100684261974585
3231	434.99511241446726
3232	259.04203323558164
3233	14.662756598240469
3234	0
3235	156.40273704789834
3236	425.21994134897363
3237	48.87585532746823
3238	4.887585532746823
3239	43.988269794721404
3240	420.33235581622677
3241	219.94134897360703
3242	14.662756598240469
3243	0
3244	141.73998044965788
3245	434.99511241446726
3246	58.651026392961874
3247	9.775171065493646
3248	29.325513196480937
3249	410.55718475073314
3250	224.82893450635387
3251	19.550342130987293
3252	4.887585532746823
3253	156.40273704789834
3254	459.4330400782014
3255	58.651026392961874
3256	0
3257	29.325513196480937
3258	434.99511241446726
3259	278.5923753665689
3260	14.662756598240469
3261	0
3262	151.5151515151515
3263	459.4330400782014
3264	53.763440860215056
3265	0
3266	53.763440860215056
3267	464.3206256109482
3268	107.52688172043011
3269	4.887585532746823
3270	4.887585532746823
3271	332.355816226784
3272	371.45650048875854
3273	34.21309872922776
3274	9.775171065493646
3275	29.325513196480937
3276	420.33235581622677
3277	259.04203323558164
3278	9.775171065493646
3279	0
3280	146.6275659824047
3281	464.3206256109482
3282	63.5386119257087
3283	4.887585532746823
3284	29.325513196480937
3285	400.7820136852395
3286	249.266862170088
3287	14.662756598240469
3288	4.887585532746823
3289	136.85239491691104
3290	454.54545454545456
3291	63.5386119257087
3292	4.887585532746823
3293	24.437927663734115
3294	410.55718475073314
3295	278.5923753665689
3296	19.550342130987293
3297	4.887585532746823
3298	127.0772238514174
3299	439.88269794721407
3300	58.651026392961874
3301	4.887585532746823
3302	24.437927663734115
3303	415.44477028347995
3304	259.04203323558164
3305	19.550342130987293
3306	4.887585532746823
3307	161.29032258064515
3308	508.3088954056696
3309	29.325513196480937
3310	4.887585532746823
3311	24.437927663734115
3312	405.66959921798633
3313	244.37927663734115
3314	19.550342130987293
3315	4.887585532746823
3316	141.73998044965788
3317	454.54545454545456
3318	63.5386119257087
3319	4.887585532746823
3320	14.662756598240469
3321	415.44477028347995
3322	283.47996089931576
3323	24.437927663734115
3324	4.887585532746823
3325	136.85239491691104
3326	439.88269794721407
3327	63.5386119257087
3328	4.887585532746823
3329	34.21309872922776
3330	410.55718475073314
3331	263.92961876832845
3332	9.775171065493646
3333	4.887585532746823
3334	131.96480938416423
3335	478.9833822091887
3336	63.5386119257087
3337	4.887585532746823
3338	19.550342130987293
3339	381.2316715542522
3340	268.81720430107526
3341	14.662756598240469
3342	9.775171065493646
3343	112.41446725317694
3344	469.208211143695
3345	73.31378299120234
3346	4.887585532746823
3347	9.775171065493646
3348	381.2316715542522
3349	273.7047898338221
3350	14.662756598240469
3351	0
3352	122.18963831867057
3353	493.6461388074291
3354	34.21309872922776
3355	4.887585532746823
3356	14.662756598240469
3357	430.10752688172045
3358	259.04203323558164
3359	14.662756598240469
3360	0
3361	136.85239491691104
3362	459.4330400782014
3363	73.31378299120234
3364	0
3365	14.662756598240469
3366	386.119257086999
3367	283.47996089931576
3368	19.550342130987293
3369	9.775171065493646
3370	122.18963831867057
3371	459.4330400782014
3372	68.42619745845552
3373	4.887585532746823
3374	14.662756598240469
3375	410.55718475073314
3376	293.2551319648094
3377	19.550342130987293
3378	9.775171065493646
3379	122.18963831867057
3380	444.7702834799609
3381	63.5386119257087
3382	4.887585532746823
3383	9.775171065493646
3384	386.119257086999
3385	278.5923753665689
3386	14.662756598240469
3387	4.887585532746823
3388	97.75171065493646
3389	469.208211143695
3390	63.5386119257087
3391	0
3392	4.887585532746823
3393	381.2316715542522
3394	283.47996089931576
3395	14.662756598240469
3396	0
3397	122.18963831867057
3398	474.09579667644186
3399	78.20136852394917
3400	9.775171065493646
3401	14.662756598240469
3402	386.119257086999
3403	303.030303030303
3404	24.437927663734115
3405	4.887585532746823
3406	112.41446725317694
3407	444.7702834799609
3408	73.31378299120234
3409	4.887585532746823
3410	9.775171065493646
3411	371.45650048875854
3412	288.36754643206257
3413	14.662756598240469
3414	9.775171065493646
3415	131.96480938416423
3416	498.533724340176
3417	39.100684261974585
3418	4.887585532746823
3419	14.662756598240469
3420	376.3440860215054
3421	303.030303030303
3422	14.662756598240469
3423	0
3424	102.63929618768329
3425	522.9716520039101
3426	39.100684261974585
3427	4.887585532746823
3428	9.775171065493646
3429	376.3440860215054
3430	268.81720430107526
3431	14.662756598240469
3432	4.887585532746823
3433	92.86412512218963
3434	478.9833822091887
3435	68.42619745845552
3436	4.887585532746823
3437	4.887585532746823
3438	371.45650048875854
3439	303.030303030303
3440	14.662756598240469
3441	4.887585532746823
3442	117.30205278592375
3443	493.6461388074291
3444	29.325513196480937
3445	4.887585532746823
3446	9.775171065493646
3447	376.3440860215054
3448	303.030303030303
3449	19.550342130987293
3450	4.887585532746823
3451	87.97653958944281
3452	459.4330400782014
3453	78.20136852394917
3454	4.887585532746823
3455	4.887585532746823
3456	366.5689149560117
3457	259.04203323558164
3458	19.550342130987293
3459	4.887585532746823
3460	87.97653958944281
3461	474.09579667644186
3462	83.088954056696
3463	9.775171065493646
3464	0
3465	342.1309872922776
3466	283.47996089931576
3467	19.550342130987293
3468	4.887585532746823
3469	92.86412512218963
3470	474.09579667644186
3471	87.97653958944281
3472	4.887585532746823
3473	9.775171065493646
3474	386.119257086999
3475	293.2551319648094
3476	19.550342130987293
3477	4.887585532746823
3478	68.42619745845552
3479	459.4330400782014
3480	78.20136852394917
3481	9.775171065493646
3482	9.775171065493646
3483	381.2316715542522
3484	307.91788856304987
3485	29.325513196480937
3486	9.775171065493646
3487	63.5386119257087
3488	459.4330400782014
3489	83.088954056696
3490	9.775171065493646
3491	4.887585532746823
3492	366.5689149560117
3493	337.2434017595308
3494	24.437927663734115
3495	4.887585532746823
3496	78.20136852394917
3497	474.09579667644186
3498	83.088954056696
3499	4.887585532746823
3500	9.775171065493646
3501	371.45650048875854
3502	278.5923753665689
3503	14.662756598240469
3504	0
3505	83.088954056696
3506	459.4330400782014
3507	78.20136852394917
3508	4.887585532746823
3509	9.775171065493646
3510	371.45650048875854
3511	317.6930596285435
3512	24.437927663734115
3513	4.887585532746823
3514	73.31378299120234
3515	459.4330400782014
3516	73.31378299120234
3517	9.775171065493646
3518	0
3519	361.6813294232649
3520	298.1427174975562
3521	24.437927663734115
3522	4.887585532746823
3523	92.86412512218963
3524	454.54545454545456
3525	63.5386119257087
3526	9.775171065493646
3527	4.887585532746823
3528	278.5923753665689
3529	342.1309872922776
3530	24.437927663734115
3531	0
3532	73.31378299120234
3533	547.4095796676442
3534	63.5386119257087
3535	4.887585532746823
3536	73.31378299120234
3537	464.3206256109482
3538	87.97653958944281
3539	9.775171065493646
3540	9.775171065493646
3541	317.6930596285435
3542	347.0185728250244
3543	24.437927663734115
3544	4.887585532746823
3545	58.651026392961874
3546	444.7702834799609
3547	78.20136852394917
3548	14.662756598240469
3549	4.887585532746823
3550	278.5923753665689
3551	327.4682306940371
3552	34.21309872922776
3553	4.887585532746823
3554	4.887585532746823
3555	483.8709677419355
3556	478.9833822091887
3557	24.437927663734115
3558	9.775171065493646
3559	156.40273704789834
3560	425.21994134897363
3561	43.988269794721404
3562	4.887585532746823
3563	4.887585532746823
3564	337.2434017595308
3565	312.8054740957967
3566	19.550342130987293
3567	0
3568	14.662756598240469
3569	332.355816226784
3570	239.49169110459434
3571	4.887585532746823
3572	19.550342130987293
3573	337.2434017595308
3574	288.36754643206257
3575	19.550342130987293
3576	9.775171065493646
3577	0
3578	395.89442815249265
3579	386.119257086999
3580	34.21309872922776
3581	9.775171065493646
3582	39.100684261974585
3583	830.8895405669599
3584	136.85239491691104
3585	4.887585532746823
3586	4.887585532746823
3587	298.1427174975562
3588	312.8054740957967
3589	29.325513196480937
3590	4.887585532746823
3591	9.775171065493646
3592	513.1964809384165
3593	136.85239491691104
3594	14.662756598240469
3595	4.887585532746823
3596	425.21994134897363
3597	327.4682306940371
3598	19.550342130987293
3599	9.775171065493646
3600	156.40273704789834
3601	596.2854349951124
3602	58.651026392961874
3603	4.887585532746823
3604	19.550342130987293
3605	601.1730205278592
3606	87.97653958944281
3607	4.887585532746823
3608	0
3609	395.89442815249265
3610	156.40273704789834
3611	19.550342130987293
3612	9.775171065493646
3613	24.437927663734115
3614	576.7350928641251
3615	180.84066471163246
3616	9.775171065493646
3617	4.887585532746823
3618	229.7165200391007
3619	366.5689149560117
3620	19.550342130987293
3621	0
3622	39.100684261974585
3623	434.99511241446726
3624	127.0772238514174
3625	9.775171065493646
3626	9.775171065493646
3627	298.1427174975562
3628	542.5219941348973
3629	24.437927663734115
3630	9.775171065493646
3631	0
3632	268.81720430107526
3633	195.50342130987292
3634	14.662756598240469
3635	4.887585532746823
3636	391.00684261974584
3637	234.6041055718475
3638	97.75171065493646
3639	9.775171065493646
3640	4.887585532746823
3641	586.5102639296188
3642	317.6930596285435
3643	14.662756598240469
3644	4.887585532746823
3645	219.94134897360703
3646	337.2434017595308
3647	24.437927663734115
3648	4.887585532746823
3649	9.775171065493646
3650	234.6041055718475
3651	73.31378299120234
3652	9.775171065493646
3653	4.887585532746823
3654	161.29032258064515
3655	366.5689149560117
3656	146.6275659824047
3657	14.662756598240469
3658	342.1309872922776
3659	615.8357771260997
3660	48.87585532746823
3661	4.887585532746823
3662	4.887585532746823
3663	29.325513196480937
3664	601.1730205278592
3665	122.18963831867057
3666	4.887585532746823
3667	371.45650048875854
3668	415.44477028347995
3669	19.550342130987293
3670	0
3671	92.86412512218963
3672	928.6412512218964
3673	107.52688172043011
3674	4.887585532746823
3675	83.088954056696
3676	376.3440860215054
3677	303.030303030303
3678	24.437927663734115
3679	14.662756598240469
3680	434.99511241446726
3681	391.00684261974584
3682	24.437927663734115
3683	4.887585532746823
3684	278.5923753665689
3685	464.3206256109482
3686	229.7165200391007
3687	24.437927663734115
3688	4.887585532746823
3689	224.82893450635387
3690	361.6813294232649
3691	14.662756598240469
3692	0
3693	146.6275659824047
3694	439.88269794721407
3695	53.763440860215056
3696	14.662756598240469
3697	19.550342130987293
3698	322.5806451612903
3699	351.90615835777123
3700	19.550342130987293
3701	4.887585532746823
3702	24.437927663734115
3703	650.0488758553274
3704	215.05376344086022
3705	9.775171065493646
3706	4.887585532746823
3707	415.44477028347995
3708	400.7820136852395
3709	39.100684261974585
3710	4.887585532746823
3711	14.662756598240469
3712	386.119257086999
3713	83.088954056696
3714	24.437927663734115
3715	9.775171065493646
3716	107.52688172043011
3717	391.00684261974584
3718	53.763440860215056
3719	0
3720	43.988269794721404
3721	263.92961876832845
3722	361.6813294232649
3723	24.437927663734115
3724	4.887585532746823
3725	278.5923753665689
3726	371.45650048875854
3727	48.87585532746823
3728	0
3729	87.97653958944281
3730	659.8240469208212
3731	48.87585532746823
3732	0
3733	117.30205278592375
3734	606.060606060606
3735	83.088954056696
3736	4.887585532746823
3737	39.100684261974585
3738	317.6930596285435
3739	415.44477028347995
3740	24.437927663734115
3741	9.775171065493646
3742	259.04203323558164
3743	415.44477028347995
3744	117.30205278592375
3745	14.662756598240469
3746	4.887585532746823
3747	415.44477028347995
3748	332.355816226784
3749	19.550342130987293
3750	4.887585532746823
3751	151.5151515151515
3752	405.66959921798633
3753	48.87585532746823
3754	4.887585532746823
3755	19.550342130987293
3756	430.10752688172045
3757	317.6930596285435
3758	24.437927663734115
3759	0
3760	117.30205278592375
3761	498.533724340176
3762	29.325513196480937
3763	9.775171065493646
3764	4.887585532746823
3765	366.5689149560117
3766	351.90615835777123
3767	24.437927663734115
3768	4.887585532746823
3769	166.177908113392
3770	581.622678396872
3771	29.325513196480937
3772	9.775171065493646
3773	43.988269794721404
3774	542.5219941348973
3775	171.0654936461388
3776	14.662756598240469
3777	0
3778	229.7165200391007
3779	566.9599217986315
3780	24.437927663734115
3781	0
3782	112.41446725317694
3783	439.88269794721407
3784	97.75171065493646
3785	4.887585532746823
3786	9.775171065493646
3787	459.4330400782014
3788	322.5806451612903
3789	19.550342130987293
3790	48.87585532746823
3791	234.6041055718475
3792	474.09579667644186
3793	29.325513196480937
3794	9.775171065493646
3795	78.20136852394917
3796	493.6461388074291
3797	68.42619745845552
3798	4.887585532746823
3799	34.21309872922776
3800	391.00684261974584
3801	195.50342130987292
3802	14.662756598240469
3803	4.887585532746823
3804	156.40273704789834
3805	386.119257086999
3806	102.63929618768329
3807	4.887585532746823
3808	4.887585532746823
3809	400.7820136852395
3810	278.5923753665689
3811	19.550342130987293
3812	4.887585532746823
3813	112.41446725317694
3814	498.533724340176
3815	43.988269794721404
3816	14.662756598240469
3817	14.662756598240469
3818	425.21994134897363
3819	347.0185728250244
3820	29.325513196480937
3821	9.775171065493646
3822	127.0772238514174
3823	689.149560117302
3824	34.21309872922776
3825	9.775171065493646
3826	24.437927663734115
3827	386.119257086999
3828	180.84066471163246
3829	9.775171065493646
3830	4.887585532746823
3831	229.7165200391007
3832	503.4213098729228
3833	43.988269794721404
3834	4.887585532746823
3835	97.75171065493646
3836	464.3206256109482
3837	87.97653958944281
3838	0
3839	0
3840	239.49169110459434
3841	366.5689149560117
3842	29.325513196480937
3843	4.887585532746823
3844	29.325513196480937
3845	518.0840664711633
3846	259.04203323558164
3847	9.775171065493646
3848	4.887585532746823
3849	361.6813294232649
3850	415.44477028347995
3851	43.988269794721404
3852	9.775171065493646
3853	53.763440860215056
3854	503.4213098729228
3855	58.651026392961874
3856	0
3857	4.887585532746823
3858	444.7702834799609
3859	332.355816226784
3860	19.550342130987293
3861	9.775171065493646
3862	19.550342130987293
3863	518.0840664711633
3864	63.5386119257087
3865	4.887585532746823
3866	39.100684261974585
3867	478.9833822091887
3868	342.1309872922776
3869	19.550342130987293
3870	0
3871	24.437927663734115
3872	439.88269794721407
3873	219.94134897360703
3874	14.662756598240469
3875	4.887585532746823
3876	244.37927663734115
3877	415.44477028347995
3878	48.87585532746823
3879	0
3880	58.651026392961874
3881	562.0723362658847
3882	39.100684261974585
3883	9.775171065493646
3884	14.662756598240469
3885	395.89442815249265
3886	288.36754643206257
3887	24.437927663734115
3888	4.887585532746823
3889	151.5151515151515
3890	601.1730205278592
3891	43.988269794721404
3892	0
3893	0
3894	410.55718475073314
3895	351.90615835777123
3896	24.437927663734115
3897	4.887585532746823
3898	92.86412512218963
3899	503.4213098729228
3900	39.100684261974585
3901	9.775171065493646
3902	43.988269794721404
3903	312.8054740957967
3904	527.8592375366569
3905	24.437927663734115
3906	0
3907	175.95307917888562
3908	405.66959921798633
3909	58.651026392961874
3910	4.887585532746823
3911	283.47996089931576
3912	513.1964809384165
3913	58.651026392961874
3914	4.887585532746823
3915	53.763440860215056
3916	469.208211143695
3917	68.42619745845552
3918	4.887585532746823
3919	0
3920	552.297165200391
3921	166.177908113392
3922	9.775171065493646
3923	4.887585532746823
3924	229.7165200391007
3925	283.47996089931576
3926	68.42619745845552
3927	4.887585532746823
3928	39.100684261974585
3929	513.1964809384165
3930	224.82893450635387
3931	9.775171065493646
3932	14.662756598240469
3933	454.54545454545456
3934	273.7047898338221
3935	19.550342130987293
3936	4.887585532746823
3937	19.550342130987293
3938	596.2854349951124
3939	97.75171065493646
3940	4.887585532746823
3941	0
3942	322.5806451612903
3943	347.0185728250244
3944	19.550342130987293
3945	4.887585532746823
3946	122.18963831867057
3947	562.0723362658847
3948	43.988269794721404
3949	0
3950	9.775171065493646
3951	454.54545454545456
3952	434.99511241446726
3953	29.325513196480937
3954	4.887585532746823
3955	161.29032258064515
3956	591.3978494623656
3957	43.988269794721404
3958	4.887585532746823
3959	0
3960	566.9599217986315
3961	112.41446725317694
3962	9.775171065493646
3963	4.887585532746823
3964	259.04203323558164
3965	410.55718475073314
3966	39.100684261974585
3967	0
3968	0
3969	376.3440860215054
3970	337.2434017595308
3971	29.325513196480937
3972	0
3973	48.87585532746823
3974	547.4095796676442
3975	58.651026392961874
3976	0
3977	156.40273704789834
3978	571.8475073313783
3979	39.100684261974585
3980	9.775171065493646
3981	0
3982	420.33235581622677
3983	288.36754643206257
3984	14.662756598240469
3985	4.887585532746823
3986	190.6158357771261
3987	410.55718475073314
3988	87.97653958944281
3989	0
3990	0
3991	347.0185728250244
3992	347.0185728250244
3993	19.550342130987293
3994	4.887585532746823
3995	53.763440860215056
3996	474.09579667644186
3997	166.177908113392
3998	14.662756598240469
3999	4.887585532746823
4000	376.3440860215054
4001	273.7047898338221
4002	14.662756598240469
4003	9.775171065493646
4004	131.96480938416423
4005	547.4095796676442
4006	29.325513196480937
4007	4.887585532746823
4008	24.437927663734115
4009	317.6930596285435
4010	391.00684261974584
4011	24.437927663734115
4012	4.887585532746823
4013	14.662756598240469
4014	386.119257086999
4015	273.7047898338221
4016	9.775171065493646
4017	0
4018	205.27859237536657
4019	361.6813294232649
4020	24.437927663734115
4021	0
4022	9.775171065493646
4023	298.1427174975562
4024	351.90615835777123
4025	24.437927663734115
4026	9.775171065493646
4027	29.325513196480937
4028	342.1309872922776
4029	288.36754643206257
4030	19.550342130987293
4031	4.887585532746823
4032	180.84066471163246
4033	454.54545454545456
4034	58.651026392961874
4035	4.887585532746823
4036	39.100684261974585
4037	483.8709677419355
4038	195.50342130987292
4039	4.887585532746823
4040	0
4041	136.85239491691104
4042	356.7937438905181
4043	92.86412512218963
4044	4.887585532746823
4045	14.662756598240469
4046	434.99511241446726
4047	229.7165200391007
4048	14.662756598240469
4049	4.887585532746823
4050	254.1544477028348
4051	332.355816226784
4052	87.97653958944281
4053	0
4054	34.21309872922776
4055	562.0723362658847
4056	107.52688172043011
4057	9.775171065493646
4058	43.988269794721404
4059	415.44477028347995
4060	400.7820136852395
4061	24.437927663734115
4062	4.887585532746823
4063	68.42619745845552
4064	518.0840664711633
4065	63.5386119257087
4066	0
4067	29.325513196480937
4068	459.4330400782014
4069	307.91788856304987
4070	19.550342130987293
4071	0
4072	249.266862170088
4073	356.7937438905181
4074	117.30205278592375
4075	14.662756598240469
4076	34.21309872922776
4077	361.6813294232649
4078	307.91788856304987
4079	14.662756598240469
4080	0
4081	215.05376344086022
4082	513.1964809384165
4083	29.325513196480937
4084	0
4085	39.100684261974585
4086	449.65786901270775
4087	141.73998044965788
4088	9.775171065493646
4089	4.887585532746823
4090	175.95307917888562
4091	547.4095796676442
4092	24.437927663734115
4093	4.887585532746823
4094	63.5386119257087
4095	464.3206256109482
4096	112.41446725317694
4097	9.775171065493646
4098	14.662756598240469
4099	366.5689149560117
4100	347.0185728250244
4101	24.437927663734115
4102	4.887585532746823
4103	39.100684261974585
4104	464.3206256109482
4105	166.177908113392
4106	14.662756598240469
4107	4.887585532746823
4108	244.37927663734115
4109	371.45650048875854
4110	53.763440860215056
4111	9.775171065493646
4112	68.42619745845552
4113	508.3088954056696
4114	68.42619745845552
4115	14.662756598240469
4116	0
4117	351.90615835777123
4118	87.97653958944281
4119	14.662756598240469
4120	4.887585532746823
4121	122.18963831867057
4122	415.44477028347995
4123	34.21309872922776
4124	9.775171065493646
4125	4.887585532746823
4126	273.7047898338221
4127	420.33235581622677
4128	39.100684261974585
4129	9.775171065493646
4130	19.550342130987293
4131	464.3206256109482
4132	215.05376344086022
4133	14.662756598240469
4134	4.887585532746823
4135	190.6158357771261
4136	508.3088954056696
4137	19.550342130987293
4138	0
4139	73.31378299120234
4140	552.297165200391
4141	39.100684261974585
4142	9.775171065493646
4143	0
4144	307.91788856304987
4145	298.1427174975562
4146	43.988269794721404
4147	9.775171065493646
4148	9.775171065493646
4149	415.44477028347995
4150	303.030303030303
4151	14.662756598240469
4152	4.887585532746823
4153	195.50342130987292
4154	547.4095796676442
4155	19.550342130987293
4156	0
4157	9.775171065493646
4158	405.66959921798633
4159	386.119257086999
4160	24.437927663734115
4161	4.887585532746823
4162	151.5151515151515
4163	449.65786901270775
4164	68.42619745845552
4165	0
4166	107.52688172043011
4167	635.386119257087
4168	53.763440860215056
4169	0
4170	9.775171065493646
4171	420.33235581622677
4172	288.36754643206257
4173	14.662756598240469
4174	0
4175	156.40273704789834
4176	464.3206256109482
4177	68.42619745845552
4178	9.775171065493646
4179	9.775171065493646
4180	332.355816226784
4181	425.21994134897363
4182	24.437927663734115
4183	14.662756598240469
4184	136.85239491691104
4185	410.55718475073314
4186	68.42619745845552
4187	4.887585532746823
4188	29.325513196480937
4189	356.7937438905181
4190	278.5923753665689
4191	24.437927663734115
4192	4.887585532746823
4193	185.72825024437927
4194	454.54545454545456
4195	68.42619745845552
4196	4.887585532746823
4197	29.325513196480937
4198	420.33235581622677
4199	278.5923753665689
4200	9.775171065493646
4201	0
4202	122.18963831867057
4203	522.9716520039101
4204	43.988269794721404
4205	4.887585532746823
4206	29.325513196480937
4207	425.21994134897363
4208	288.36754643206257
4209	9.775171065493646
4210	9.775171065493646
4211	58.651026392961874
4212	571.8475073313783
4213	92.86412512218963
4214	9.775171065493646
4215	122.18963831867057
4216	483.8709677419355
4217	58.651026392961874
4218	4.887585532746823
4219	24.437927663734115
4220	454.54545454545456
4221	293.2551319648094
4222	19.550342130987293
4223	4.887585532746823
4224	166.177908113392
4225	518.0840664711633
4226	39.100684261974585
4227	9.775171065493646
4228	9.775171065493646
4229	415.44477028347995
4230	283.47996089931576
4231	19.550342130987293
4232	9.775171065493646
4233	107.52688172043011
4234	434.99511241446726
4235	73.31378299120234
4236	0
4237	14.662756598240469
4238	420.33235581622677
4239	322.5806451612903
4240	24.437927663734115
4241	4.887585532746823
4242	122.18963831867057
4243	498.533724340176
4244	29.325513196480937
4245	4.887585532746823
4246	14.662756598240469
4247	430.10752688172045
4248	307.91788856304987
4249	19.550342130987293
4250	0
4251	117.30205278592375
4252	508.3088954056696
4253	39.100684261974585
4254	14.662756598240469
4255	4.887585532746823
4256	415.44477028347995
4257	298.1427174975562
4258	19.550342130987293
4259	4.887585532746823
4260	87.97653958944281
4261	478.9833822091887
4262	73.31378299120234
4263	9.775171065493646
4264	4.887585532746823
4265	381.2316715542522
4266	298.1427174975562
4267	24.437927663734115
4268	0
4269	87.97653958944281
4270	464.3206256109482
4271	92.86412512218963
4272	9.775171065493646
4273	4.887585532746823
4274	400.7820136852395
4275	322.5806451612903
4276	14.662756598240469
4277	4.887585532746823
4278	122.18963831867057
4279	518.0840664711633
4280	48.87585532746823
4281	4.887585532746823
4282	73.31378299120234
4283	478.9833822091887
4284	78.20136852394917
4285	0
4286	0
4287	439.88269794721407
4288	303.030303030303
4289	14.662756598240469
4290	9.775171065493646
4291	151.5151515151515
4292	518.0840664711633
4293	48.87585532746823
4294	4.887585532746823
4295	97.75171065493646
4296	478.9833822091887
4297	83.088954056696
4298	4.887585532746823
4299	9.775171065493646
4300	366.5689149560117
4301	312.8054740957967
4302	24.437927663734115
4303	4.887585532746823
4304	122.18963831867057
4305	513.1964809384165
4306	43.988269794721404
4307	0
4308	9.775171065493646
4309	410.55718475073314
4310	332.355816226784
4311	19.550342130987293
4312	4.887585532746823
4313	92.86412512218963
4314	503.4213098729228
4315	43.988269794721404
4316	4.887585532746823
4317	24.437927663734115
4318	425.21994134897363
4319	366.5689149560117
4320	24.437927663734115
4321	4.887585532746823
4322	87.97653958944281
4323	474.09579667644186
4324	83.088954056696
4325	4.887585532746823
4326	4.887585532746823
4327	371.45650048875854
4328	312.8054740957967
4329	24.437927663734115
4330	4.887585532746823
4331	97.75171065493646
4332	483.8709677419355
4333	83.088954056696
4334	9.775171065493646
4335	4.887585532746823
4336	376.3440860215054
4337	307.91788856304987
4338	14.662756598240469
4339	4.887585532746823
4340	78.20136852394917
4341	527.8592375366569
4342	43.988269794721404
4343	4.887585532746823
4344	4.887585532746823
4345	381.2316715542522
4346	327.4682306940371
4347	19.550342130987293
4348	9.775171065493646
4349	73.31378299120234
4350	449.65786901270775
4351	73.31378299120234
4352	0
4353	4.887585532746823
4354	425.21994134897363
4355	366.5689149560117
4356	24.437927663734115
4357	4.887585532746823
4358	78.20136852394917
4359	444.7702834799609
4360	83.088954056696
4361	4.887585532746823
4362	4.887585532746823
4363	376.3440860215054
4364	312.8054740957967
4365	19.550342130987293
4366	4.887585532746823
4367	73.31378299120234
4368	488.7585532746823
4369	48.87585532746823
4370	4.887585532746823
4371	97.75171065493646
4372	527.8592375366569
4373	48.87585532746823
4374	9.775171065493646
4375	83.088954056696
4376	513.1964809384165
4377	48.87585532746823
4378	0
4379	83.088954056696
4380	508.3088954056696
4381	48.87585532746823
4382	4.887585532746823
4383	53.763440860215056
4384	503.4213098729228
4385	48.87585532746823
4386	9.775171065493646
4387	68.42619745845552
4388	552.297165200391
4389	39.100684261974585
4390	4.887585532746823
4391	0
4392	376.3440860215054
4393	347.0185728250244
4394	24.437927663734115
4395	4.887585532746823
4396	68.42619745845552
4397	518.0840664711633
4398	43.988269794721404
4399	4.887585532746823
4400	4.887585532746823
4401	371.45650048875854
4402	332.355816226784
4403	24.437927663734115
4404	0
4405	73.31378299120234
4406	464.3206256109482
4407	92.86412512218963
4408	9.775171065493646
4409	0
4410	381.2316715542522
4411	386.119257086999
4412	29.325513196480937
4413	9.775171065493646
4414	43.988269794721404
4415	469.208211143695
4416	200.39100684261976
4417	19.550342130987293
4418	4.887585532746823
4419	215.05376344086022
4420	439.88269794721407
4421	43.988269794721404
4422	4.887585532746823
4423	4.887585532746823
4424	366.5689149560117
4425	351.90615835777123
4426	19.550342130987293
4427	4.887585532746823
4428	43.988269794721404
4429	474.09579667644186
4430	219.94134897360703
4431	19.550342130987293
4432	4.887585532746823
4433	195.50342130987292
4434	464.3206256109482
4435	48.87585532746823
4436	4.887585532746823
4437	63.5386119257087
4438	522.9716520039101
4439	53.763440860215056
4440	9.775171065493646
4441	53.763440860215056
4442	522.9716520039101
4443	53.763440860215056
4444	4.887585532746823
4445	63.5386119257087
4446	483.8709677419355
4447	97.75171065493646
4448	4.887585532746823
4449	4.887585532746823
4450	342.1309872922776
4451	356.7937438905181
4452	24.437927663734115
4453	9.775171065493646
4454	68.42619745845552
4455	469.208211143695
4456	97.75171065493646
4457	9.775171065493646
4458	4.887585532746823
4459	366.5689149560117
4460	337.2434017595308
4461	19.550342130987293
4462	4.887585532746823
4463	78.20136852394917
4464	478.9833822091887
4465	107.52688172043011
4466	4.887585532746823
4467	0
4468	332.355816226784
4469	386.119257086999
4470	29.325513196480937
4471	0
4472	43.988269794721404
4473	439.88269794721407
4474	219.94134897360703
4475	14.662756598240469
4476	4.887585532746823
4477	200.39100684261976
4478	449.65786901270775
4479	48.87585532746823
4480	4.887585532746823
4481	48.87585532746823
4482	498.533724340176
4483	53.763440860215056
4484	4.887585532746823
4485	24.437927663734115
4486	454.54545454545456
4487	244.37927663734115
4488	19.550342130987293
4489	4.887585532746823
4490	180.84066471163246
4491	464.3206256109482
4492	53.763440860215056
4493	9.775171065493646
4494	39.100684261974585
4495	498.533724340176
4496	107.52688172043011
4497	4.887585532746823
4498	9.775171065493646
4499	347.0185728250244
4500	391.00684261974584
4501	24.437927663734115
4502	0
4503	48.87585532746823
4504	469.208211143695
4505	107.52688172043011
4506	14.662756598240469
4507	4.887585532746823
4508	351.90615835777123
4509	351.90615835777123
4510	29.325513196480937
4511	14.662756598240469
4512	53.763440860215056
4513	493.6461388074291
4514	53.763440860215056
4515	0
4516	53.763440860215056
4517	488.7585532746823
4518	63.5386119257087
4519	9.775171065493646
4520	34.21309872922776
4521	444.7702834799609
4522	254.1544477028348
4523	14.662756598240469
4524	0
4525	151.5151515151515
4526	459.4330400782014
4527	68.42619745845552
4528	4.887585532746823
4529	39.100684261974585
4530	430.10752688172045
4531	224.82893450635387
4532	19.550342130987293
4533	4.887585532746823
4534	175.95307917888562
4535	498.533724340176
4536	24.437927663734115
4537	4.887585532746823
4538	48.87585532746823
4539	498.533724340176
4540	63.5386119257087
4541	4.887585532746823
4542	39.100684261974585
4543	459.4330400782014
4544	254.1544477028348
4545	9.775171065493646
4546	0
4547	175.95307917888562
4548	464.3206256109482
4549	53.763440860215056
4550	4.887585532746823
4551	39.100684261974585
4552	454.54545454545456
4553	239.49169110459434
4554	19.550342130987293
4555	9.775171065493646
4556	171.0654936461388
4557	459.4330400782014
4558	63.5386119257087
4559	9.775171065493646
4560	53.763440860215056
4561	459.4330400782014
4562	122.18963831867057
4563	9.775171065493646
4564	0
4565	307.91788856304987
4566	371.45650048875854
4567	29.325513196480937
4568	4.887585532746823
4569	14.662756598240469
4570	430.10752688172045
4571	317.6930596285435
4572	19.550342130987293
4573	0
4574	156.40273704789834
4575	478.9833822091887
4576	53.763440860215056
4577	0
4578	24.437927663734115
4579	449.65786901270775
4580	273.7047898338221
4581	9.775171065493646
4582	4.887585532746823
4583	156.40273704789834
4584	483.8709677419355
4585	53.763440860215056
4586	4.887585532746823
4587	34.21309872922776
4588	469.208211143695
4589	268.81720430107526
4590	14.662756598240469
4591	0
4592	151.5151515151515
4593	474.09579667644186
4594	63.5386119257087
4595	9.775171065493646
4596	24.437927663734115
4597	430.10752688172045
4598	273.7047898338221
4599	14.662756598240469
4600	4.887585532746823
4601	161.29032258064515
4602	474.09579667644186
4603	63.5386119257087
4604	4.887585532746823
4605	29.325513196480937
4606	395.89442815249265
4607	322.5806451612903
4608	19.550342130987293
4609	0
4610	151.5151515151515
4611	464.3206256109482
4612	63.5386119257087
4613	0
4614	29.325513196480937
4615	420.33235581622677
4616	263.92961876832845
4617	9.775171065493646
4618	4.887585532746823
4619	151.5151515151515
4620	474.09579667644186
4621	63.5386119257087
4622	0
4623	24.437927663734115
4624	434.99511241446726
4625	273.7047898338221
4626	14.662756598240469
4627	4.887585532746823
4628	136.85239491691104
4629	483.8709677419355
4630	68.42619745845552
4631	0
4632	14.662756598240469
4633	439.88269794721407
4634	273.7047898338221
4635	19.550342130987293
4636	0
4637	141.73998044965788
4638	474.09579667644186
4639	73.31378299120234
4640	0
4641	24.437927663734115
4642	434.99511241446726
4643	298.1427174975562
4644	19.550342130987293
4645	0
4646	122.18963831867057
4647	464.3206256109482
4648	73.31378299120234
4649	4.887585532746823
4650	19.550342130987293
4651	444.7702834799609
4652	288.36754643206257
4653	14.662756598240469
4654	4.887585532746823
4655	141.73998044965788
4656	483.8709677419355
4657	53.763440860215056
4658	4.887585532746823
4659	19.550342130987293
4660	434.99511241446726
4661	307.91788856304987
4662	19.550342130987293
4663	9.775171065493646
4664	131.96480938416423
4665	483.8709677419355
4666	68.42619745845552
4667	9.775171065493646
4668	19.550342130987293
4669	420.33235581622677
4670	293.2551319648094
4671	24.437927663734115
4672	4.887585532746823
4673	131.96480938416423
4674	508.3088954056696
4675	39.100684261974585
4676	4.887585532746823
4677	9.775171065493646
4678	400.7820136852395
4679	303.030303030303
4680	14.662756598240469
4681	0
4682	117.30205278592375
4683	459.4330400782014
4684	87.97653958944281
4685	0
4686	14.662756598240469
4687	420.33235581622677
4688	303.030303030303
4689	14.662756598240469
4690	9.775171065493646
4691	122.18963831867057
4692	483.8709677419355
4693	78.20136852394917
4694	0
4695	24.437927663734115
4696	415.44477028347995
4697	283.47996089931576
4698	19.550342130987293
4699	9.775171065493646
4700	107.52688172043011
4701	474.09579667644186
4702	73.31378299120234
4703	4.887585532746823
4704	9.775171065493646
4705	400.7820136852395
4706	312.8054740957967
4707	19.550342130987293
4708	4.887585532746823
4709	122.18963831867057
4710	464.3206256109482
4711	68.42619745845552
4712	14.662756598240469
4713	19.550342130987293
4714	415.44477028347995
4715	293.2551319648094
4716	14.662756598240469
4717	9.775171065493646
4718	112.41446725317694
4719	478.9833822091887
4720	78.20136852394917
4721	9.775171065493646
4722	9.775171065493646
4723	410.55718475073314
4724	298.1427174975562
4725	19.550342130987293
4726	0
4727	141.73998044965788
4728	518.0840664711633
4729	48.87585532746823
4730	4.887585532746823
4731	102.63929618768329
4732	488.7585532746823
4733	34.21309872922776
4734	4.887585532746823
4735	4.887585532746823
4736	405.66959921798633
4737	332.355816226784
4738	19.550342130987293
4739	0
4740	92.86412512218963
4741	483.8709677419355
4742	68.42619745845552
4743	4.887585532746823
4744	4.887585532746823
4745	405.66959921798633
4746	312.8054740957967
4747	14.662756598240469
4748	0
4749	117.30205278592375
4750	518.0840664711633
4751	39.100684261974585
4752	9.775171065493646
4753	14.662756598240469
4754	386.119257086999
4755	322.5806451612903
4756	14.662756598240469
4757	4.887585532746823
4758	122.18963831867057
4759	459.4330400782014
4760	83.088954056696
4761	9.775171065493646
4762	9.775171065493646
4763	395.89442815249265
4764	317.6930596285435
4765	24.437927663734115
4766	4.887585532746823
4767	112.41446725317694
4768	498.533724340176
4769	43.988269794721404
4770	9.775171065493646
4771	4.887585532746823
4772	376.3440860215054
4773	327.4682306940371
4774	19.550342130987293
4775	4.887585532746823
4776	87.97653958944281
4777	488.7585532746823
4778	43.988269794721404
4779	4.887585532746823
4780	0
4781	376.3440860215054
4782	337.2434017595308
4783	24.437927663734115
4784	4.887585532746823
4785	73.31378299120234
4786	478.9833822091887
4787	83.088954056696
4788	4.887585532746823
4789	9.775171065493646
4790	376.3440860215054
4791	312.8054740957967
4792	19.550342130987293
4793	4.887585532746823
4794	87.97653958944281
4795	498.533724340176
4796	43.988269794721404
4797	4.887585532746823
4798	0
4799	366.5689149560117
4800	337.2434017595308
4801	19.550342130987293
4802	0
4803	92.86412512218963
4804	513.1964809384165
4805	43.988269794721404
4806	9.775171065493646
4807	0
4808	386.119257086999
4809	342.1309872922776
4810	19.550342130987293
4811	9.775171065493646
4812	117.30205278592375
4813	508.3088954056696
4814	43.988269794721404
4815	4.887585532746823
4816	0
4817	371.45650048875854
4818	317.6930596285435
4819	19.550342130987293
4820	4.887585532746823
4821	73.31378299120234
4822	503.4213098729228
4823	43.988269794721404
4824	4.887585532746823
4825	4.887585532746823
4826	386.119257086999
4827	356.7937438905181
4828	24.437927663734115
4829	4.887585532746823
4830	78.20136852394917
4831	503.4213098729228
4832	53.763440860215056
4833	4.887585532746823
4834	92.86412512218963
4835	508.3088954056696
4836	43.988269794721404
4837	9.775171065493646
4838	0
4839	371.45650048875854
4840	351.90615835777123
4841	24.437927663734115
4842	0
4843	78.20136852394917
4844	459.4330400782014
4845	102.63929618768329
4846	9.775171065493646
4847	4.887585532746823
4848	361.6813294232649
4849	347.0185728250244
4850	19.550342130987293
4851	9.775171065493646
4852	58.651026392961874
4853	532.7468230694037
4854	53.763440860215056
4855	4.887585532746823
4856	68.42619745845552
4857	478.9833822091887
4858	87.97653958944281
4859	9.775171065493646
4860	0
4861	391.00684261974584
4862	361.6813294232649
4863	19.550342130987293
4864	9.775171065493646
4865	68.42619745845552
4866	488.7585532746823
4867	39.100684261974585
4868	4.887585532746823
4869	9.775171065493646
4870	356.7937438905181
4871	351.90615835777123
4872	29.325513196480937
4873	4.887585532746823
4874	58.651026392961874
4875	498.533724340176
4876	48.87585532746823
4877	4.887585532746823
4878	68.42619745845552
4879	503.4213098729228
4880	53.763440860215056
4881	4.887585532746823
4882	48.87585532746823
4883	483.8709677419355
4884	97.75171065493646
4885	4.887585532746823
4886	4.887585532746823
4887	351.90615835777123
4888	395.89442815249265
4889	19.550342130987293
4890	4.887585532746823
4891	63.5386119257087
4892	518.0840664711633
4893	53.763440860215056
4894	4.887585532746823
4895	58.651026392961874
4896	493.6461388074291
4897	53.763440860215056
4898	9.775171065493646
4899	53.763440860215056
4900	483.8709677419355
4901	117.30205278592375
4902	9.775171065493646
4903	4.887585532746823
4904	347.0185728250244
4905	371.45650048875854
4906	29.325513196480937
4907	4.887585532746823
4908	48.87585532746823
4909	464.3206256109482
4910	102.63929618768329
4911	4.887585532746823
4912	0
4913	376.3440860215054
4914	391.00684261974584
4915	29.325513196480937
4916	4.887585532746823
4917	48.87585532746823
4918	503.4213098729228
4919	53.763440860215056
4920	4.887585532746823
4921	58.651026392961874
4922	518.0840664711633
4923	53.763440860215056
4924	4.887585532746823
4925	48.87585532746823
4926	483.8709677419355
4927	107.52688172043011
4928	4.887585532746823
4929	0
4930	356.7937438905181
4931	371.45650048875854
4932	24.437927663734115
4933	4.887585532746823
4934	29.325513196480937
4935	434.99511241446726
4936	283.47996089931576
4937	14.662756598240469
4938	9.775171065493646
4939	190.6158357771261
4940	474.09579667644186
4941	43.988269794721404
4942	14.662756598240469
4943	4.887585532746823
4944	361.6813294232649
4945	366.5689149560117
4946	34.21309872922776
4947	4.887585532746823
4948	39.100684261974585
4949	444.7702834799609
4950	244.37927663734115
4951	14.662756598240469
4952	0
4953	171.0654936461388
4954	483.8709677419355
4955	48.87585532746823
4956	4.887585532746823
4957	29.325513196480937
4958	459.4330400782014
4959	263.92961876832845
4960	14.662756598240469
4961	4.887585532746823
4962	185.72825024437927
4963	478.9833822091887
4964	53.763440860215056
4965	9.775171065493646
4966	43.988269794721404
4967	459.4330400782014
4968	278.5923753665689
4969	9.775171065493646
4970	4.887585532746823
4971	156.40273704789834
4972	474.09579667644186
4973	58.651026392961874
4974	0
4975	39.100684261974585
4976	444.7702834799609
4977	249.266862170088
4978	19.550342130987293
4979	9.775171065493646
4980	180.84066471163246
4981	474.09579667644186
4982	58.651026392961874
4983	0
4984	29.325513196480937
4985	444.7702834799609
4986	259.04203323558164
4987	14.662756598240469
4988	4.887585532746823
4989	156.40273704789834
4990	474.09579667644186
4991	68.42619745845552
4992	9.775171065493646
4993	24.437927663734115
4994	444.7702834799609
4995	263.92961876832845
4996	14.662756598240469
4997	4.887585532746823
4998	175.95307917888562
4999	503.4213098729228
5000	24.437927663734115
5001	0
5002	34.21309872922776
5003	464.3206256109482
5004	288.36754643206257
5005	9.775171065493646
5006	9.775171065493646
5007	156.40273704789834
5008	474.09579667644186
5009	63.5386119257087
5010	4.887585532746823
5011	24.437927663734115
5012	434.99511241446726
5013	283.47996089931576
5014	14.662756598240469
5015	0
5016	156.40273704789834
5017	478.9833822091887
5018	68.42619745845552
5019	4.887585532746823
5020	9.775171065493646
5021	425.21994134897363
5022	317.6930596285435
5023	14.662756598240469
5024	0
5025	127.0772238514174
5026	474.09579667644186
5027	68.42619745845552
5028	4.887585532746823
5029	19.550342130987293
5030	434.99511241446726
5031	273.7047898338221
5032	14.662756598240469
5033	0
5034	136.85239491691104
5035	474.09579667644186
5036	58.651026392961874
5037	0
5038	19.550342130987293
5039	430.10752688172045
5040	273.7047898338221
5041	14.662756598240469
5042	9.775171065493646
5043	136.85239491691104
5044	459.4330400782014
5045	63.5386119257087
5046	4.887585532746823
5047	0
5048	381.2316715542522
5049	381.2316715542522
5050	29.325513196480937
5051	0
5052	127.0772238514174
5053	474.09579667644186
5054	68.42619745845552
5055	4.887585532746823
5056	14.662756598240469
5057	430.10752688172045
5058	283.47996089931576
5059	14.662756598240469
5060	4.887585532746823
5061	92.86412512218963
5062	391.00684261974584
5063	78.20136852394917
5064	0
5065	4.887585532746823
5066	669.5992179863148
5067	224.82893450635387
5068	14.662756598240469
5069	4.887585532746823
5070	303.030303030303
5071	439.88269794721407
5072	78.20136852394917
5073	0
5074	136.85239491691104
5075	464.3206256109482
5076	87.97653958944281
5077	4.887585532746823
5078	9.775171065493646
5079	254.1544477028348
5080	303.030303030303
5081	19.550342130987293
5082	0
5083	268.81720430107526
5084	420.33235581622677
5085	39.100684261974585
5086	9.775171065493646
5087	4.887585532746823
5088	361.6813294232649
5089	303.030303030303
5090	68.42619745845552
5091	9.775171065493646
5092	161.29032258064515
5093	239.49169110459434
5094	19.550342130987293
5095	9.775171065493646
5096	4.887585532746823
5097	19.550342130987293
5098	278.5923753665689
5099	73.31378299120234
5100	4.887585532746823
5101	29.325513196480937
5102	430.10752688172045
5103	371.45650048875854
5104	24.437927663734115
5105	4.887585532746823
5106	229.7165200391007
5107	469.208211143695
5108	102.63929618768329
5109	4.887585532746823
5110	39.100684261974585
5111	117.30205278592375
5112	635.386119257087
5113	34.21309872922776
5114	43.988269794721404
5115	122.18963831867057
5116	332.355816226784
5117	39.100684261974585
5118	4.887585532746823
5119	347.0185728250244
5120	777.1260997067449
5121	39.100684261974585
5122	4.887585532746823
5123	0
5124	307.91788856304987
5125	444.7702834799609
5126	48.87585532746823
5127	24.437927663734115
5128	9.775171065493646
5129	449.65786901270775
5130	288.36754643206257
5131	24.437927663734115
5132	9.775171065493646
5133	254.1544477028348
5134	141.73998044965788
5135	19.550342130987293
5136	4.887585532746823
5137	200.39100684261976
5138	361.6813294232649
5139	107.52688172043011
5140	0
5141	4.887585532746823
5142	303.030303030303
5143	640.2737047898338
5144	24.437927663734115
5145	0
5146	161.29032258064515
5147	454.54545454545456
5148	78.20136852394917
5149	14.662756598240469
5150	4.887585532746823
5151	332.355816226784
5152	205.27859237536657
5153	53.763440860215056
5154	4.887585532746823
5155	464.3206256109482
5156	430.10752688172045
5157	73.31378299120234
5158	4.887585532746823
5159	136.85239491691104
5160	718.475073313783
5161	39.100684261974585
5162	9.775171065493646
5163	0
5164	131.96480938416423
5165	747.8005865102639
5166	24.437927663734115
5167	9.775171065493646
5168	156.40273704789834
5169	488.7585532746823
5170	24.437927663734115
5171	0
5172	141.73998044965788
5173	439.88269794721407
5174	268.81720430107526
5175	9.775171065493646
5176	4.887585532746823
5177	503.4213098729228
5178	107.52688172043011
5179	9.775171065493646
5180	9.775171065493646
5181	215.05376344086022
5182	591.3978494623656
5183	29.325513196480937
5184	4.887585532746823
5185	0
5186	581.622678396872
5187	122.18963831867057
5188	14.662756598240469
5189	9.775171065493646
5190	322.5806451612903
5191	263.92961876832845
5192	14.662756598240469
5193	4.887585532746823
5194	14.662756598240469
5195	786.9012707722385
5196	210.16617790811338
5197	14.662756598240469
5198	24.437927663734115
5199	498.533724340176
5200	117.30205278592375
5201	9.775171065493646
5202	9.775171065493646
5203	557.1847507331378
5204	361.6813294232649
5205	14.662756598240469
5206	4.887585532746823
5207	9.775171065493646
5208	366.5689149560117
5209	298.1427174975562
5210	24.437927663734115
5211	4.887585532746823
5212	146.6275659824047
5213	474.09579667644186
5214	58.651026392961874
5215	4.887585532746823
5216	219.94134897360703
5217	654.9364613880742
5218	29.325513196480937
5219	0
5220	131.96480938416423
5221	430.10752688172045
5222	102.63929618768329
5223	4.887585532746823
5224	4.887585532746823
5225	156.40273704789834
5226	400.7820136852395
5227	127.0772238514174
5228	4.887585532746823
5229	68.42619745845552
5230	537.6344086021505
5231	39.100684261974585
5232	9.775171065493646
5233	0
5234	249.266862170088
5235	454.54545454545456
5236	43.988269794721404
5237	9.775171065493646
5238	92.86412512218963
5239	434.99511241446726
5240	200.39100684261976
5241	9.775171065493646
5242	83.088954056696
5243	395.89442815249265
5244	151.5151515151515
5245	14.662756598240469
5246	0
5247	131.96480938416423
5248	537.6344086021505
5249	34.21309872922776
5250	0
5251	24.437927663734115
5252	425.21994134897363
5253	259.04203323558164
5254	19.550342130987293
5255	9.775171065493646
5256	112.41446725317694
5257	566.9599217986315
5258	29.325513196480937
5259	4.887585532746823
5260	0
5261	141.73998044965788
5262	542.5219941348973
5263	14.662756598240469
5264	39.100684261974585
5265	645.1612903225806
5266	205.27859237536657
5267	14.662756598240469
5268	4.887585532746823
5269	347.0185728250244
5270	459.4330400782014
5271	63.5386119257087
5272	4.887585532746823
5273	83.088954056696
5274	434.99511241446726
5275	83.088954056696
5276	0
5277	39.100684261974585
5278	483.8709677419355
5279	351.90615835777123
5280	24.437927663734115
5281	4.887585532746823
5282	107.52688172043011
5283	381.2316715542522
5284	131.96480938416423
5285	4.887585532746823
5286	9.775171065493646
5287	347.0185728250244
5288	180.84066471163246
5289	4.887585532746823
5290	4.887585532746823
5291	78.20136852394917
5292	508.3088954056696
5293	43.988269794721404
5294	9.775171065493646
5295	0
5296	312.8054740957967
5297	391.00684261974584
5298	29.325513196480937
5299	4.887585532746823
5300	58.651026392961874
5301	425.21994134897363
5302	131.96480938416423
5303	0
5304	0
5305	596.2854349951124
5306	288.36754643206257
5307	19.550342130987293
5308	4.887585532746823
5309	205.27859237536657
5310	483.8709677419355
5311	53.763440860215056
5312	0
5313	107.52688172043011
5314	478.9833822091887
5315	68.42619745845552
5316	4.887585532746823
5317	9.775171065493646
5318	434.99511241446726
5319	395.89442815249265
5320	29.325513196480937
5321	9.775171065493646
5322	43.988269794721404
5323	478.9833822091887
5324	195.50342130987292
5325	14.662756598240469
5326	4.887585532746823
5327	117.30205278592375
5328	410.55718475073314
5329	102.63929618768329
5330	4.887585532746823
5331	0
5332	371.45650048875854
5333	200.39100684261976
5334	9.775171065493646
5335	4.887585532746823
5336	224.82893450635387
5337	327.4682306940371
5338	146.6275659824047
5339	9.775171065493646
5340	14.662756598240469
5341	381.2316715542522
5342	171.0654936461388
5343	14.662756598240469
5344	0
5345	307.91788856304987
5346	537.6344086021505
5347	29.325513196480937
5348	4.887585532746823
5349	4.887585532746823
5350	474.09579667644186
5351	298.1427174975562
5352	19.550342130987293
5353	4.887585532746823
5354	200.39100684261976
5355	518.0840664711633
5356	29.325513196480937
5357	0
5358	34.21309872922776
5359	386.119257086999
5360	229.7165200391007
5361	14.662756598240469
5362	9.775171065493646
5363	190.6158357771261
5364	518.0840664711633
5365	63.5386119257087
5366	4.887585532746823
5367	146.6275659824047
5368	420.33235581622677
5369	43.988269794721404
5370	9.775171065493646
5371	0
5372	229.7165200391007
5373	356.7937438905181
5374	34.21309872922776
5375	0
5376	19.550342130987293
5377	464.3206256109482
5378	151.5151515151515
5379	9.775171065493646
5380	9.775171065493646
5381	180.84066471163246
5382	410.55718475073314
5383	43.988269794721404
5384	4.887585532746823
5385	4.887585532746823
5386	244.37927663734115
5387	303.030303030303
5388	19.550342130987293
5389	4.887585532746823
5390	9.775171065493646
5391	259.04203323558164
5392	254.1544477028348
5393	9.775171065493646
5394	4.887585532746823
5395	136.85239491691104
5396	459.4330400782014
5397	87.97653958944281
5398	9.775171065493646
5399	58.651026392961874
5400	376.3440860215054
5401	117.30205278592375
5402	9.775171065493646
5403	0
5404	293.2551319648094
5405	244.37927663734115
5406	14.662756598240469
5407	4.887585532746823
5408	63.5386119257087
5409	322.5806451612903
5410	112.41446725317694
5411	9.775171065493646
5412	4.887585532746823
5413	278.5923753665689
5414	288.36754643206257
5415	29.325513196480937
5416	4.887585532746823
5417	4.887585532746823
5418	459.4330400782014
5419	249.266862170088
5420	9.775171065493646
5421	0
5422	205.27859237536657
5423	434.99511241446726
5424	68.42619745845552
5425	4.887585532746823
5426	34.21309872922776
